'Elapsed time','MLII','V1'
'hh:mm:ss.mmm','mV','mV'
'14:00.000',-0.930,-0.140
'14:00.003',-0.950,-0.115
'14:00.006',-0.965,-0.120
'14:00.008',-0.980,-0.115
'14:00.011',-0.980,-0.110
'14:00.014',-0.970,-0.115
'14:00.017',-0.965,-0.100
'14:00.019',-0.960,-0.090
'14:00.022',-0.980,-0.090
'14:00.025',-0.995,-0.080
'14:00.028',-1.015,-0.070
'14:00.031',-1.040,-0.055
'14:00.033',-1.045,-0.050
'14:00.036',-1.040,-0.040
'14:00.039',-1.040,-0.030
'14:00.042',-1.020,-0.030
'14:00.044',-1.015,-0.010
'14:00.047',-1.015,-0.005
'14:00.050',-1.005,0.010
'14:00.053',-1.005,0.020
'14:00.056',-1.020,0.025
'14:00.058',-1.050,0.025
'14:00.061',-1.060,0.025
'14:00.064',-1.040,0.040
'14:00.067',-1.035,0.060
'14:00.069',-1.020,0.065
'14:00.072',-1.005,0.095
'14:00.075',-1.000,0.115
'14:00.078',-0.985,0.125
'14:00.081',-0.990,0.135
'14:00.083',-0.995,0.125
'14:00.086',-0.980,0.120
'14:00.089',-0.975,0.140
'14:00.092',-0.935,0.140
'14:00.094',-0.925,0.155
'14:00.097',-0.910,0.170
'14:00.100',-0.895,0.185
'14:00.103',-0.890,0.200
'14:00.106',-0.870,0.210
'14:00.108',-0.855,0.215
'14:00.111',-0.830,0.235
'14:00.114',-0.795,0.230
'14:00.117',-0.775,0.250
'14:00.119',-0.750,0.255
'14:00.122',-0.730,0.265
'14:00.125',-0.710,0.270
'14:00.128',-0.700,0.265
'14:00.131',-0.695,0.275
'14:00.133',-0.655,0.280
'14:00.136',-0.620,0.285
'14:00.139',-0.575,0.290
'14:00.142',-0.535,0.300
'14:00.144',-0.510,0.315
'14:00.147',-0.475,0.305
'14:00.150',-0.455,0.310
'14:00.153',-0.450,0.305
'14:00.156',-0.430,0.285
'14:00.158',-0.400,0.270
'14:00.161',-0.370,0.245
'14:00.164',-0.345,0.245
'14:00.167',-0.310,0.255
'14:00.169',-0.270,0.260
'14:00.172',-0.245,0.260
'14:00.175',-0.215,0.245
'14:00.178',-0.190,0.235
'14:00.181',-0.165,0.210
'14:00.183',-0.125,0.190
'14:00.186',-0.095,0.165
'14:00.189',-0.075,0.140
'14:00.192',-0.065,0.125
'14:00.194',-0.060,0.115
'14:00.197',-0.075,0.105
'14:00.200',-0.080,0.105
'14:00.203',-0.070,0.100
'14:00.206',-0.050,0.090
'14:00.208',-0.035,0.080
'14:00.211',-0.020,0.065
'14:00.214',-0.030,0.045
'14:00.217',-0.020,0.050
'14:00.219',-0.040,0.025
'14:00.222',-0.085,0.035
'14:00.225',-0.100,0.025
'14:00.228',-0.120,-0.005
'14:00.231',-0.135,-0.010
'14:00.233',-0.160,-0.020
'14:00.236',-0.170,-0.010
'14:00.239',-0.175,0.000
'14:00.242',-0.215,0.025
'14:00.244',-0.235,0.020
'14:00.247',-0.250,0.020
'14:00.250',-0.285,0.040
'14:00.253',-0.305,0.030
'14:00.256',-0.315,0.035
'14:00.258',-0.345,0.025
'14:00.261',-0.380,0.035
'14:00.264',-0.410,0.055
'14:00.267',-0.445,0.080
'14:00.269',-0.455,0.090
'14:00.272',-0.475,0.105
'14:00.275',-0.480,0.125
'14:00.278',-0.495,0.120
'14:00.281',-0.505,0.125
'14:00.283',-0.530,0.140
'14:00.286',-0.540,0.140
'14:00.289',-0.570,0.150
'14:00.292',-0.580,0.155
'14:00.294',-0.605,0.150
'14:00.297',-0.620,0.160
'14:00.300',-0.620,0.170
'14:00.303',-0.630,0.185
'14:00.306',-0.615,0.205
'14:00.308',-0.610,0.225
'14:00.311',-0.610,0.270
'14:00.314',-0.595,0.295
'14:00.317',-0.600,0.325
'14:00.319',-0.600,0.345
'14:00.322',-0.610,0.360
'14:00.325',-0.600,0.375
'14:00.328',-0.600,0.370
'14:00.331',-0.600,0.370
'14:00.333',-0.575,0.360
'14:00.336',-0.555,0.340
'14:00.339',-0.530,0.315
'14:00.342',-0.485,0.285
'14:00.344',-0.440,0.255
'14:00.347',-0.405,0.235
'14:00.350',-0.380,0.185
'14:00.353',-0.365,0.145
'14:00.356',-0.370,0.120
'14:00.358',-0.375,0.100
'14:00.361',-0.375,0.095
'14:00.364',-0.370,0.105
'14:00.367',-0.350,0.085
'14:00.369',-0.340,0.090
'14:00.372',-0.330,0.085
'14:00.375',-0.330,0.085
'14:00.378',-0.350,0.075
'14:00.381',-0.375,0.055
'14:00.383',-0.420,0.055
'14:00.386',-0.475,0.055
'14:00.389',-0.550,0.030
'14:00.392',-0.580,0.005
'14:00.394',-0.635,-0.010
'14:00.397',-0.665,-0.030
'14:00.400',-0.695,-0.025
'14:00.403',-0.700,-0.025
'14:00.406',-0.710,-0.010
'14:00.408',-0.695,-0.010
'14:00.411',-0.685,-0.010
'14:00.414',-0.665,-0.005
'14:00.417',-0.665,-0.020
'14:00.419',-0.655,-0.030
'14:00.422',-0.665,-0.045
'14:00.425',-0.670,-0.045
'14:00.428',-0.700,-0.060
'14:00.431',-0.695,-0.060
'14:00.433',-0.680,-0.050
'14:00.436',-0.670,-0.055
'14:00.439',-0.665,-0.040
'14:00.442',-0.665,-0.040
'14:00.444',-0.670,-0.035
'14:00.447',-0.670,-0.025
'14:00.450',-0.680,-0.005
'14:00.453',-0.670,0.015
'14:00.456',-0.675,0.060
'14:00.458',-0.680,0.100
'14:00.461',-0.705,0.140
'14:00.464',-0.730,0.160
'14:00.467',-0.760,0.130
'14:00.469',-0.735,0.030
'14:00.472',-0.665,-0.185
'14:00.475',-0.520,-0.470
'14:00.478',-0.285,-0.845
'14:00.481',0.030,-1.260
'14:00.483',0.435,-1.620
'14:00.486',0.895,-1.915
'14:00.489',1.400,-2.085
'14:00.492',1.825,-2.150
'14:00.494',2.125,-2.150
'14:00.497',2.185,-2.085
'14:00.500',2.010,-1.990
'14:00.503',1.670,-1.920
'14:00.506',1.225,-1.845
'14:00.508',0.725,-1.785
'14:00.511',0.265,-1.665
'14:00.514',-0.145,-1.450
'14:00.517',-0.475,-1.120
'14:00.519',-0.760,-0.765
'14:00.522',-0.985,-0.470
'14:00.525',-1.130,-0.285
'14:00.528',-1.185,-0.200
'14:00.531',-1.150,-0.175
'14:00.533',-1.060,-0.180
'14:00.536',-0.940,-0.205
'14:00.539',-0.845,-0.205
'14:00.542',-0.790,-0.175
'14:00.544',-0.785,-0.150
'14:00.547',-0.815,-0.130
'14:00.550',-0.860,-0.105
'14:00.553',-0.895,-0.110
'14:00.556',-0.925,-0.115
'14:00.558',-0.935,-0.100
'14:00.561',-0.950,-0.110
'14:00.564',-0.945,-0.095
'14:00.567',-0.925,-0.085
'14:00.569',-0.920,-0.055
'14:00.572',-0.915,-0.040
'14:00.575',-0.935,-0.025
'14:00.578',-0.950,-0.015
'14:00.581',-0.950,-0.025
'14:00.583',-0.960,-0.015
'14:00.586',-0.970,-0.005
'14:00.589',-0.970,0.005
'14:00.592',-0.975,0.015
'14:00.594',-1.000,0.020
'14:00.597',-1.005,0.035
'14:00.600',-1.025,0.035
'14:00.603',-1.025,0.045
'14:00.606',-1.020,0.060
'14:00.608',-1.015,0.070
'14:00.611',-0.990,0.100
'14:00.614',-0.995,0.105
'14:00.617',-0.985,0.130
'14:00.619',-0.990,0.130
'14:00.622',-1.000,0.135
'14:00.625',-1.000,0.145
'14:00.628',-0.985,0.145
'14:00.631',-0.985,0.165
'14:00.633',-0.960,0.185
'14:00.636',-0.935,0.205
'14:00.639',-0.910,0.230
'14:00.642',-0.895,0.245
'14:00.644',-0.885,0.260
'14:00.647',-0.865,0.265
'14:00.650',-0.850,0.275
'14:00.653',-0.820,0.270
'14:00.656',-0.805,0.275
'14:00.658',-0.775,0.290
'14:00.661',-0.755,0.300
'14:00.664',-0.740,0.310
'14:00.667',-0.725,0.325
'14:00.669',-0.685,0.340
'14:00.672',-0.645,0.345
'14:00.675',-0.610,0.355
'14:00.678',-0.555,0.385
'14:00.681',-0.530,0.385
'14:00.683',-0.490,0.390
'14:00.686',-0.455,0.405
'14:00.689',-0.440,0.395
'14:00.692',-0.415,0.385
'14:00.694',-0.385,0.370
'14:00.697',-0.340,0.355
'14:00.700',-0.295,0.345
'14:00.703',-0.275,0.370
'14:00.706',-0.245,0.370
'14:00.708',-0.215,0.390
'14:00.711',-0.200,0.385
'14:00.714',-0.155,0.380
'14:00.717',-0.130,0.345
'14:00.719',-0.090,0.335
'14:00.722',-0.060,0.310
'14:00.725',-0.035,0.300
'14:00.728',-0.015,0.290
'14:00.731',0.000,0.275
'14:00.733',0.005,0.275
'14:00.736',0.000,0.280
'14:00.739',0.020,0.260
'14:00.742',0.035,0.250
'14:00.744',0.065,0.245
'14:00.747',0.070,0.225
'14:00.750',0.065,0.230
'14:00.753',0.050,0.215
'14:00.756',0.030,0.205
'14:00.758',0.025,0.190
'14:00.761',0.010,0.165
'14:00.764',0.005,0.145
'14:00.767',0.000,0.135
'14:00.769',-0.015,0.135
'14:00.772',-0.020,0.135
'14:00.775',-0.030,0.135
'14:00.778',-0.050,0.135
'14:00.781',-0.075,0.120
'14:00.783',-0.095,0.115
'14:00.786',-0.125,0.120
'14:00.789',-0.140,0.090
'14:00.792',-0.165,0.090
'14:00.794',-0.190,0.090
'14:00.797',-0.220,0.100
'14:00.800',-0.260,0.120
'14:00.803',-0.280,0.130
'14:00.806',-0.300,0.140
'14:00.808',-0.320,0.145
'14:00.811',-0.325,0.145
'14:00.814',-0.350,0.165
'14:00.817',-0.365,0.175
'14:00.819',-0.400,0.185
'14:00.822',-0.435,0.200
'14:00.825',-0.470,0.195
'14:00.828',-0.490,0.205
'14:00.831',-0.495,0.205
'14:00.833',-0.520,0.210
'14:00.836',-0.540,0.230
'14:00.839',-0.535,0.265
'14:00.842',-0.540,0.300
'14:00.844',-0.540,0.340
'14:00.847',-0.545,0.360
'14:00.850',-0.535,0.380
'14:00.853',-0.535,0.400
'14:00.856',-0.540,0.405
'14:00.858',-0.535,0.440
'14:00.861',-0.560,0.430
'14:00.864',-0.550,0.435
'14:00.867',-0.540,0.420
'14:00.869',-0.525,0.405
'14:00.872',-0.495,0.380
'14:00.875',-0.455,0.365
'14:00.878',-0.415,0.340
'14:00.881',-0.385,0.295
'14:00.883',-0.370,0.260
'14:00.886',-0.365,0.230
'14:00.889',-0.355,0.195
'14:00.892',-0.360,0.170
'14:00.894',-0.345,0.145
'14:00.897',-0.335,0.140
'14:00.900',-0.315,0.135
'14:00.903',-0.315,0.120
'14:00.906',-0.295,0.135
'14:00.908',-0.305,0.130
'14:00.911',-0.325,0.135
'14:00.914',-0.355,0.120
'14:00.917',-0.405,0.115
'14:00.919',-0.445,0.095
'14:00.922',-0.500,0.080
'14:00.925',-0.545,0.065
'14:00.928',-0.595,0.045
'14:00.931',-0.640,0.045
'14:00.933',-0.670,0.040
'14:00.936',-0.690,0.045
'14:00.939',-0.685,0.050
'14:00.942',-0.685,0.050
'14:00.944',-0.660,0.060
'14:00.947',-0.630,0.055
'14:00.950',-0.635,0.045
'14:00.953',-0.635,0.025
'14:00.956',-0.655,0.005
'14:00.958',-0.675,0.005
'14:00.961',-0.700,0.005
'14:00.964',-0.700,0.005
'14:00.967',-0.695,0.025
'14:00.969',-0.680,0.035
'14:00.972',-0.665,0.030
'14:00.975',-0.650,0.020
'14:00.978',-0.640,0.020
'14:00.981',-0.660,0.015
'14:00.983',-0.650,0.005
'14:00.986',-0.640,0.015
'14:00.989',-0.650,0.015
'14:00.992',-0.640,0.025
'14:00.994',-0.655,0.030
'14:00.997',-0.665,0.055
'14:01.000',-0.675,0.095
'14:01.003',-0.695,0.140
'14:01.006',-0.705,0.175
'14:01.008',-0.735,0.200
'14:01.011',-0.720,0.165
'14:01.014',-0.695,0.040
'14:01.017',-0.605,-0.170
'14:01.019',-0.445,-0.475
'14:01.022',-0.245,-0.870
'14:01.025',0.055,-1.270
'14:01.028',0.400,-1.625
'14:01.031',0.825,-1.885
'14:01.033',1.295,-2.055
'14:01.036',1.730,-2.130
'14:01.039',2.075,-2.130
'14:01.042',2.230,-2.115
'14:01.044',2.185,-2.065
'14:01.047',1.940,-2.020
'14:01.050',1.605,-1.980
'14:01.053',1.195,-1.925
'14:01.056',0.755,-1.870
'14:01.058',0.345,-1.745
'14:01.061',-0.015,-1.520
'14:01.064',-0.335,-1.175
'14:01.067',-0.620,-0.775
'14:01.069',-0.870,-0.440
'14:01.072',-1.035,-0.215
'14:01.075',-1.115,-0.115
'14:01.078',-1.105,-0.090
'14:01.081',-1.020,-0.120
'14:01.083',-0.910,-0.145
'14:01.086',-0.815,-0.160
'14:01.089',-0.760,-0.150
'14:01.092',-0.745,-0.140
'14:01.094',-0.775,-0.130
'14:01.097',-0.825,-0.115
'14:01.100',-0.860,-0.090
'14:01.103',-0.885,-0.065
'14:01.106',-0.905,-0.065
'14:01.108',-0.895,-0.045
'14:01.111',-0.870,-0.040
'14:01.114',-0.840,-0.030
'14:01.117',-0.845,-0.020
'14:01.119',-0.840,-0.020
'14:01.122',-0.840,-0.045
'14:01.125',-0.880,-0.035
'14:01.128',-0.895,-0.045
'14:01.131',-0.925,-0.025
'14:01.133',-0.930,0.000
'14:01.136',-0.925,0.020
'14:01.139',-0.915,0.030
'14:01.142',-0.920,0.050
'14:01.144',-0.910,0.075
'14:01.147',-0.895,0.070
'14:01.150',-0.905,0.070
'14:01.153',-0.895,0.075
'14:01.156',-0.895,0.085
'14:01.158',-0.880,0.085
'14:01.161',-0.865,0.085
'14:01.164',-0.855,0.095
'14:01.167',-0.860,0.105
'14:01.169',-0.870,0.130
'14:01.172',-0.865,0.140
'14:01.175',-0.860,0.155
'14:01.178',-0.860,0.175
'14:01.181',-0.840,0.190
'14:01.183',-0.820,0.215
'14:01.186',-0.790,0.230
'14:01.189',-0.765,0.230
'14:01.192',-0.745,0.245
'14:01.194',-0.735,0.255
'14:01.197',-0.715,0.250
'14:01.200',-0.705,0.280
'14:01.203',-0.660,0.300
'14:01.206',-0.630,0.325
'14:01.208',-0.580,0.345
'14:01.211',-0.540,0.380
'14:01.214',-0.510,0.385
'14:01.217',-0.485,0.395
'14:01.219',-0.465,0.390
'14:01.222',-0.430,0.390
'14:01.225',-0.405,0.390
'14:01.228',-0.365,0.405
'14:01.231',-0.325,0.415
'14:01.233',-0.295,0.415
'14:01.236',-0.260,0.435
'14:01.239',-0.220,0.445
'14:01.242',-0.190,0.455
'14:01.244',-0.140,0.455
'14:01.247',-0.095,0.450
'14:01.250',-0.045,0.455
'14:01.253',-0.005,0.460
'14:01.256',0.015,0.460
'14:01.258',0.030,0.450
'14:01.261',0.050,0.420
'14:01.264',0.060,0.410
'14:01.267',0.080,0.385
'14:01.269',0.110,0.380
'14:01.272',0.130,0.370
'14:01.275',0.155,0.370
'14:01.278',0.180,0.365
'14:01.281',0.195,0.365
'14:01.283',0.205,0.345
'14:01.286',0.220,0.315
'14:01.289',0.225,0.285
'14:01.292',0.225,0.275
'14:01.294',0.230,0.255
'14:01.297',0.215,0.255
'14:01.300',0.200,0.270
'14:01.303',0.180,0.255
'14:01.306',0.150,0.240
'14:01.308',0.130,0.230
'14:01.311',0.120,0.225
'14:01.314',0.095,0.220
'14:01.317',0.110,0.190
'14:01.319',0.090,0.170
'14:01.322',0.055,0.160
'14:01.325',0.040,0.150
'14:01.328',0.005,0.130
'14:01.331',-0.005,0.130
'14:01.333',-0.025,0.100
'14:01.336',-0.030,0.110
'14:01.339',-0.040,0.125
'14:01.342',-0.060,0.130
'14:01.344',-0.085,0.150
'14:01.347',-0.110,0.145
'14:01.350',-0.140,0.145
'14:01.353',-0.170,0.120
'14:01.356',-0.190,0.110
'14:01.358',-0.190,0.110
'14:01.361',-0.215,0.100
'14:01.364',-0.230,0.120
'14:01.367',-0.255,0.155
'14:01.369',-0.310,0.180
'14:01.372',-0.345,0.205
'14:01.375',-0.385,0.215
'14:01.378',-0.395,0.230
'14:01.381',-0.415,0.225
'14:01.383',-0.425,0.240
'14:01.386',-0.450,0.235
'14:01.389',-0.470,0.250
'14:01.392',-0.485,0.245
'14:01.394',-0.500,0.240
'14:01.397',-0.515,0.245
'14:01.400',-0.520,0.240
'14:01.403',-0.510,0.250
'14:01.406',-0.505,0.260
'14:01.408',-0.500,0.285
'14:01.411',-0.505,0.310
'14:01.414',-0.500,0.335
'14:01.417',-0.525,0.365
'14:01.419',-0.520,0.380
'14:01.422',-0.520,0.400
'14:01.425',-0.515,0.415
'14:01.428',-0.495,0.410
'14:01.431',-0.485,0.405
'14:01.433',-0.470,0.390
'14:01.436',-0.450,0.355
'14:01.439',-0.430,0.360
'14:01.442',-0.410,0.350
'14:01.444',-0.360,0.340
'14:01.447',-0.325,0.310
'14:01.450',-0.285,0.275
'14:01.453',-0.255,0.230
'14:01.456',-0.255,0.200
'14:01.458',-0.235,0.160
'14:01.461',-0.230,0.140
'14:01.464',-0.225,0.125
'14:01.467',-0.225,0.135
'14:01.469',-0.215,0.125
'14:01.472',-0.230,0.100
'14:01.475',-0.235,0.095
'14:01.478',-0.295,0.090
'14:01.481',-0.345,0.085
'14:01.483',-0.410,0.075
'14:01.486',-0.480,0.070
'14:01.489',-0.515,0.055
'14:01.492',-0.540,0.045
'14:01.494',-0.570,0.025
'14:01.497',-0.570,0.020
'14:01.500',-0.575,0.030
'14:01.503',-0.560,0.025
'14:01.506',-0.560,0.025
'14:01.508',-0.565,0.020
'14:01.511',-0.555,0.025
'14:01.514',-0.555,0.005
'14:01.517',-0.550,-0.010
'14:01.519',-0.550,-0.020
'14:01.522',-0.545,-0.030
'14:01.525',-0.555,-0.015
'14:01.528',-0.565,-0.005
'14:01.531',-0.570,0.000
'14:01.533',-0.575,-0.010
'14:01.536',-0.570,0.000
'14:01.539',-0.570,0.010
'14:01.542',-0.555,0.010
'14:01.544',-0.545,0.030
'14:01.547',-0.545,0.045
'14:01.550',-0.545,0.060
'14:01.553',-0.550,0.095
'14:01.556',-0.550,0.140
'14:01.558',-0.575,0.170
'14:01.561',-0.595,0.195
'14:01.564',-0.595,0.135
'14:01.567',-0.575,-0.015
'14:01.569',-0.485,-0.280
'14:01.572',-0.320,-0.660
'14:01.575',-0.045,-1.075
'14:01.578',0.330,-1.460
'14:01.581',0.795,-1.770
'14:01.583',1.305,-1.945
'14:01.586',1.790,-2.020
'14:01.589',2.160,-2.010
'14:01.592',2.280,-1.970
'14:01.594',2.140,-1.905
'14:01.597',1.785,-1.830
'14:01.600',1.320,-1.735
'14:01.603',0.830,-1.645
'14:01.606',0.335,-1.510
'14:01.608',-0.135,-1.280
'14:01.611',-0.550,-0.995
'14:01.614',-0.890,-0.705
'14:01.617',-1.120,-0.465
'14:01.619',-1.240,-0.300
'14:01.622',-1.250,-0.220
'14:01.625',-1.165,-0.180
'14:01.628',-1.030,-0.165
'14:01.631',-0.905,-0.160
'14:01.633',-0.810,-0.140
'14:01.636',-0.760,-0.105
'14:01.639',-0.755,-0.075
'14:01.642',-0.785,-0.040
'14:01.644',-0.820,-0.020
'14:01.647',-0.850,-0.020
'14:01.650',-0.860,-0.020
'14:01.653',-0.875,-0.020
'14:01.656',-0.880,-0.025
'14:01.658',-0.880,-0.020
'14:01.661',-0.870,-0.020
'14:01.664',-0.870,-0.005
'14:01.667',-0.865,0.010
'14:01.669',-0.865,0.015
'14:01.672',-0.880,0.030
'14:01.675',-0.895,0.040
'14:01.678',-0.895,0.065
'14:01.681',-0.905,0.070
'14:01.683',-0.895,0.090
'14:01.686',-0.890,0.090
'14:01.689',-0.890,0.085
'14:01.692',-0.885,0.105
'14:01.694',-0.890,0.095
'14:01.697',-0.900,0.110
'14:01.700',-0.910,0.115
'14:01.703',-0.905,0.120
'14:01.706',-0.880,0.145
'14:01.708',-0.870,0.165
'14:01.711',-0.845,0.190
'14:01.714',-0.820,0.215
'14:01.717',-0.810,0.225
'14:01.719',-0.795,0.220
'14:01.722',-0.795,0.220
'14:01.725',-0.800,0.225
'14:01.728',-0.785,0.230
'14:01.731',-0.780,0.250
'14:01.733',-0.745,0.270
'14:01.736',-0.710,0.300
'14:01.739',-0.685,0.315
'14:01.742',-0.660,0.330
'14:01.744',-0.650,0.325
'14:01.747',-0.635,0.340
'14:01.750',-0.610,0.340
'14:01.753',-0.600,0.360
'14:01.756',-0.565,0.365
'14:01.758',-0.540,0.380
'14:01.761',-0.525,0.390
'14:01.764',-0.510,0.380
'14:01.767',-0.480,0.390
'14:01.769',-0.460,0.390
'14:01.772',-0.425,0.415
'14:01.775',-0.385,0.420
'14:01.778',-0.345,0.435
'14:01.781',-0.300,0.440
'14:01.783',-0.280,0.425
'14:01.786',-0.270,0.425
'14:01.789',-0.270,0.405
'14:01.792',-0.255,0.385
'14:01.794',-0.255,0.355
'14:01.797',-0.220,0.365
'14:01.800',-0.190,0.370
'14:01.803',-0.130,0.365
'14:01.806',-0.080,0.370
'14:01.808',-0.050,0.365
'14:01.811',-0.020,0.345
'14:01.814',0.005,0.320
'14:01.817',0.010,0.295
'14:01.819',0.035,0.270
'14:01.822',0.060,0.255
'14:01.825',0.080,0.235
'14:01.828',0.090,0.220
'14:01.831',0.105,0.215
'14:01.833',0.105,0.205
'14:01.836',0.100,0.185
'14:01.839',0.105,0.185
'14:01.842',0.110,0.180
'14:01.844',0.115,0.185
'14:01.847',0.115,0.180
'14:01.850',0.105,0.170
'14:01.853',0.085,0.155
'14:01.856',0.065,0.150
'14:01.858',0.035,0.115
'14:01.861',0.020,0.100
'14:01.864',0.000,0.095
'14:01.867',-0.015,0.090
'14:01.869',-0.035,0.105
'14:01.872',-0.045,0.125
'14:01.875',-0.065,0.135
'14:01.878',-0.100,0.150
'14:01.881',-0.140,0.145
'14:01.883',-0.165,0.140
'14:01.886',-0.190,0.125
'14:01.889',-0.185,0.130
'14:01.892',-0.215,0.130
'14:01.894',-0.235,0.135
'14:01.897',-0.280,0.150
'14:01.900',-0.310,0.180
'14:01.903',-0.340,0.185
'14:01.906',-0.360,0.205
'14:01.908',-0.375,0.200
'14:01.911',-0.380,0.205
'14:01.914',-0.395,0.225
'14:01.917',-0.410,0.245
'14:01.919',-0.435,0.250
'14:01.922',-0.465,0.255
'14:01.925',-0.490,0.255
'14:01.928',-0.515,0.245
'14:01.931',-0.540,0.235
'14:01.933',-0.545,0.235
'14:01.936',-0.550,0.245
'14:01.939',-0.555,0.250
'14:01.942',-0.540,0.275
'14:01.944',-0.545,0.290
'14:01.947',-0.565,0.300
'14:01.950',-0.560,0.290
'14:01.953',-0.565,0.295
'14:01.956',-0.565,0.290
'14:01.958',-0.560,0.295
'14:01.961',-0.565,0.310
'14:01.964',-0.555,0.325
'14:01.967',-0.555,0.365
'14:01.969',-0.545,0.405
'14:01.972',-0.550,0.445
'14:01.975',-0.550,0.455
'14:01.978',-0.550,0.480
'14:01.981',-0.530,0.495
'14:01.983',-0.500,0.470
'14:01.986',-0.475,0.445
'14:01.989',-0.455,0.425
'14:01.992',-0.425,0.415
'14:01.994',-0.415,0.385
'14:01.997',-0.395,0.360
'14:02.000',-0.400,0.340
'14:02.003',-0.360,0.325
'14:02.006',-0.330,0.295
'14:02.008',-0.300,0.285
'14:02.011',-0.275,0.265
'14:02.014',-0.255,0.255
'14:02.017',-0.240,0.225
'14:02.019',-0.245,0.220
'14:02.022',-0.250,0.195
'14:02.025',-0.270,0.180
'14:02.028',-0.290,0.160
'14:02.031',-0.300,0.135
'14:02.033',-0.345,0.130
'14:02.036',-0.400,0.130
'14:02.039',-0.460,0.130
'14:02.042',-0.505,0.125
'14:02.044',-0.535,0.115
'14:02.047',-0.555,0.095
'14:02.050',-0.565,0.085
'14:02.053',-0.575,0.085
'14:02.056',-0.590,0.060
'14:02.058',-0.595,0.045
'14:02.061',-0.610,0.040
'14:02.064',-0.615,0.040
'14:02.067',-0.620,0.055
'14:02.069',-0.610,0.040
'14:02.072',-0.605,0.030
'14:02.075',-0.590,0.035
'14:02.078',-0.580,0.040
'14:02.081',-0.570,0.050
'14:02.083',-0.580,0.050
'14:02.086',-0.585,0.065
'14:02.089',-0.595,0.040
'14:02.092',-0.585,0.045
'14:02.094',-0.595,0.035
'14:02.097',-0.595,0.015
'14:02.100',-0.590,0.010
'14:02.103',-0.585,0.035
'14:02.106',-0.585,0.055
'14:02.108',-0.585,0.090
'14:02.111',-0.590,0.145
'14:02.114',-0.625,0.190
'14:02.117',-0.615,0.230
'14:02.119',-0.635,0.210
'14:02.122',-0.620,0.115
'14:02.125',-0.580,-0.085
'14:02.128',-0.475,-0.400
'14:02.131',-0.275,-0.780
'14:02.133',0.015,-1.175
'14:02.136',0.405,-1.495
'14:02.139',0.865,-1.725
'14:02.142',1.365,-1.835
'14:02.144',1.840,-1.870
'14:02.147',2.205,-1.865
'14:02.150',2.390,-1.830
'14:02.153',2.330,-1.765
'14:02.156',2.065,-1.715
'14:02.158',1.650,-1.640
'14:02.161',1.160,-1.570
'14:02.164',0.610,-1.455
'14:02.167',0.105,-1.265
'14:02.169',-0.355,-1.015
'14:02.172',-0.720,-0.755
'14:02.175',-1.040,-0.530
'14:02.178',-1.225,-0.355
'14:02.181',-1.280,-0.240
'14:02.183',-1.250,-0.170
'14:02.186',-1.145,-0.145
'14:02.189',-1.030,-0.125
'14:02.192',-0.915,-0.115
'14:02.194',-0.830,-0.100
'14:02.197',-0.815,-0.080
'14:02.200',-0.815,-0.055
'14:02.203',-0.840,-0.035
'14:02.206',-0.870,-0.020
'14:02.208',-0.890,-0.010
'14:02.211',-0.895,-0.005
'14:02.214',-0.905,0.015
'14:02.217',-0.905,0.015
'14:02.219',-0.920,0.020
'14:02.222',-0.930,0.025
'14:02.225',-0.930,0.015
'14:02.228',-0.940,0.020
'14:02.231',-0.940,0.020
'14:02.233',-0.940,0.045
'14:02.236',-0.940,0.050
'14:02.239',-0.945,0.065
'14:02.242',-0.955,0.065
'14:02.244',-0.955,0.085
'14:02.247',-0.955,0.095
'14:02.250',-0.940,0.105
'14:02.253',-0.945,0.110
'14:02.256',-0.935,0.110
'14:02.258',-0.935,0.105
'14:02.261',-0.950,0.120
'14:02.264',-0.955,0.115
'14:02.267',-0.965,0.130
'14:02.269',-0.980,0.160
'14:02.272',-0.955,0.180
'14:02.275',-0.935,0.195
'14:02.278',-0.905,0.210
'14:02.281',-0.895,0.220
'14:02.283',-0.890,0.205
'14:02.286',-0.870,0.230
'14:02.289',-0.865,0.235
'14:02.292',-0.855,0.240
'14:02.294',-0.835,0.260
'14:02.297',-0.820,0.270
'14:02.300',-0.805,0.290
'14:02.303',-0.790,0.300
'14:02.306',-0.775,0.320
'14:02.308',-0.760,0.320
'14:02.311',-0.725,0.345
'14:02.314',-0.695,0.375
'14:02.317',-0.670,0.375
'14:02.319',-0.640,0.385
'14:02.322',-0.610,0.400
'14:02.325',-0.580,0.395
'14:02.328',-0.560,0.390
'14:02.331',-0.550,0.385
'14:02.333',-0.525,0.395
'14:02.336',-0.500,0.390
'14:02.339',-0.445,0.405
'14:02.342',-0.405,0.420
'14:02.344',-0.370,0.425
'14:02.347',-0.350,0.410
'14:02.350',-0.330,0.410
'14:02.353',-0.320,0.395
'14:02.356',-0.300,0.380
'14:02.358',-0.280,0.375
'14:02.361',-0.235,0.365
'14:02.364',-0.200,0.360
'14:02.367',-0.165,0.355
'14:02.369',-0.140,0.340
'14:02.372',-0.100,0.320
'14:02.375',-0.085,0.300
'14:02.378',-0.045,0.305
'14:02.381',-0.020,0.275
'14:02.383',0.015,0.265
'14:02.386',0.030,0.255
'14:02.389',0.040,0.225
'14:02.392',0.045,0.210
'14:02.394',0.045,0.190
'14:02.397',0.035,0.165
'14:02.400',0.025,0.155
'14:02.403',0.010,0.150
'14:02.406',0.030,0.150
'14:02.408',0.030,0.150
'14:02.411',0.035,0.155
'14:02.414',0.030,0.155
'14:02.417',0.020,0.130
'14:02.419',-0.010,0.100
'14:02.422',-0.040,0.095
'14:02.425',-0.065,0.085
'14:02.428',-0.075,0.085
'14:02.431',-0.105,0.095
'14:02.433',-0.115,0.090
'14:02.436',-0.145,0.080
'14:02.439',-0.170,0.100
'14:02.442',-0.205,0.105
'14:02.444',-0.220,0.120
'14:02.447',-0.240,0.120
'14:02.450',-0.245,0.140
'14:02.453',-0.265,0.140
'14:02.456',-0.285,0.155
'14:02.458',-0.330,0.155
'14:02.461',-0.365,0.160
'14:02.464',-0.400,0.160
'14:02.467',-0.430,0.180
'14:02.469',-0.440,0.195
'14:02.472',-0.445,0.205
'14:02.475',-0.455,0.220
'14:02.478',-0.470,0.245
'14:02.481',-0.465,0.255
'14:02.483',-0.480,0.255
'14:02.486',-0.490,0.260
'14:02.489',-0.505,0.265
'14:02.492',-0.515,0.265
'14:02.494',-0.515,0.290
'14:02.497',-0.515,0.295
'14:02.500',-0.515,0.330
'14:02.503',-0.510,0.355
'14:02.506',-0.510,0.385
'14:02.508',-0.510,0.400
'14:02.511',-0.500,0.440
'14:02.514',-0.500,0.465
'14:02.517',-0.475,0.475
'14:02.519',-0.470,0.470
'14:02.522',-0.450,0.450
'14:02.525',-0.430,0.410
'14:02.528',-0.405,0.375
'14:02.531',-0.385,0.335
'14:02.533',-0.360,0.300
'14:02.536',-0.320,0.280
'14:02.539',-0.295,0.255
'14:02.542',-0.270,0.235
'14:02.544',-0.235,0.225
'14:02.547',-0.225,0.200
'14:02.550',-0.230,0.190
'14:02.553',-0.220,0.175
'14:02.556',-0.230,0.150
'14:02.558',-0.220,0.140
'14:02.561',-0.210,0.125
'14:02.564',-0.230,0.130
'14:02.567',-0.240,0.125
'14:02.569',-0.280,0.130
'14:02.572',-0.345,0.120
'14:02.575',-0.405,0.105
'14:02.578',-0.465,0.110
'14:02.581',-0.505,0.075
'14:02.583',-0.540,0.060
'14:02.586',-0.565,0.060
'14:02.589',-0.585,0.050
'14:02.592',-0.605,0.030
'14:02.594',-0.605,0.030
'14:02.597',-0.610,0.025
'14:02.600',-0.625,0.025
'14:02.603',-0.600,0.020
'14:02.606',-0.585,0.025
'14:02.608',-0.580,0.020
'14:02.611',-0.580,0.025
'14:02.614',-0.575,0.025
'14:02.617',-0.570,0.025
'14:02.619',-0.580,0.030
'14:02.622',-0.595,0.015
'14:02.625',-0.600,0.010
'14:02.628',-0.600,0.000
'14:02.631',-0.595,-0.010
'14:02.633',-0.590,0.005
'14:02.636',-0.590,0.015
'14:02.639',-0.595,0.015
'14:02.642',-0.600,0.060
'14:02.644',-0.600,0.080
'14:02.647',-0.600,0.115
'14:02.650',-0.615,0.150
'14:02.653',-0.620,0.180
'14:02.656',-0.635,0.180
'14:02.658',-0.650,0.155
'14:02.661',-0.640,0.040
'14:02.664',-0.570,-0.175
'14:02.667',-0.445,-0.470
'14:02.669',-0.230,-0.840
'14:02.672',0.065,-1.210
'14:02.675',0.430,-1.535
'14:02.678',0.855,-1.785
'14:02.681',1.330,-1.955
'14:02.683',1.785,-2.025
'14:02.686',2.120,-2.025
'14:02.689',2.270,-2.000
'14:02.692',2.215,-1.950
'14:02.694',1.975,-1.885
'14:02.697',1.600,-1.845
'14:02.700',1.135,-1.800
'14:02.703',0.650,-1.740
'14:02.706',0.215,-1.650
'14:02.708',-0.140,-1.455
'14:02.711',-0.415,-1.145
'14:02.714',-0.660,-0.805
'14:02.717',-0.880,-0.495
'14:02.719',-1.035,-0.285
'14:02.722',-1.110,-0.180
'14:02.725',-1.090,-0.160
'14:02.728',-1.025,-0.165
'14:02.731',-0.925,-0.175
'14:02.733',-0.830,-0.170
'14:02.736',-0.780,-0.155
'14:02.739',-0.770,-0.115
'14:02.742',-0.780,-0.095
'14:02.744',-0.795,-0.085
'14:02.747',-0.820,-0.070
'14:02.750',-0.845,-0.060
'14:02.753',-0.870,-0.050
'14:02.756',-0.880,-0.060
'14:02.758',-0.890,-0.045
'14:02.761',-0.905,-0.040
'14:02.764',-0.895,-0.035
'14:02.767',-0.890,-0.030
'14:02.769',-0.885,-0.020
'14:02.772',-0.880,-0.010
'14:02.775',-0.900,0.000
'14:02.778',-0.900,0.030
'14:02.781',-0.910,0.045
'14:02.783',-0.940,0.045
'14:02.786',-0.925,0.075
'14:02.789',-0.935,0.065
'14:02.792',-0.940,0.065
'14:02.794',-0.940,0.065
'14:02.797',-0.955,0.075
'14:02.800',-0.955,0.100
'14:02.803',-0.960,0.105
'14:02.806',-0.960,0.125
'14:02.808',-0.945,0.140
'14:02.811',-0.935,0.160
'14:02.814',-0.920,0.175
'14:02.817',-0.910,0.165
'14:02.819',-0.915,0.195
'14:02.822',-0.910,0.190
'14:02.825',-0.920,0.195
'14:02.828',-0.920,0.210
'14:02.831',-0.915,0.225
'14:02.833',-0.900,0.240
'14:02.836',-0.880,0.250
'14:02.839',-0.855,0.265
'14:02.842',-0.825,0.280
'14:02.844',-0.805,0.285
'14:02.847',-0.790,0.315
'14:02.850',-0.770,0.320
'14:02.853',-0.745,0.340
'14:02.856',-0.715,0.350
'14:02.858',-0.695,0.345
'14:02.861',-0.660,0.340
'14:02.864',-0.640,0.335
'14:02.867',-0.625,0.340
'14:02.869',-0.605,0.350
'14:02.872',-0.580,0.365
'14:02.875',-0.550,0.385
'14:02.878',-0.510,0.405
'14:02.881',-0.460,0.425
'14:02.883',-0.405,0.415
'14:02.886',-0.370,0.430
'14:02.889',-0.340,0.400
'14:02.892',-0.315,0.405
'14:02.894',-0.300,0.395
'14:02.897',-0.270,0.390
'14:02.900',-0.230,0.405
'14:02.903',-0.185,0.410
'14:02.906',-0.140,0.415
'14:02.908',-0.115,0.400
'14:02.911',-0.100,0.405
'14:02.914',-0.070,0.395
'14:02.917',-0.045,0.380
'14:02.919',-0.025,0.370
'14:02.922',0.005,0.350
'14:02.925',0.035,0.350
'14:02.928',0.060,0.325
'14:02.931',0.070,0.310
'14:02.933',0.085,0.300
'14:02.936',0.105,0.295
'14:02.939',0.105,0.275
'14:02.942',0.105,0.265
'14:02.944',0.105,0.260
'14:02.947',0.110,0.245
'14:02.950',0.140,0.245
'14:02.953',0.140,0.240
'14:02.956',0.135,0.215
'14:02.958',0.120,0.200
'14:02.961',0.095,0.190
'14:02.964',0.055,0.180
'14:02.967',0.045,0.155
'14:02.969',0.030,0.140
'14:02.972',0.025,0.150
'14:02.975',0.025,0.145
'14:02.978',0.040,0.150
'14:02.981',0.025,0.150
'14:02.983',0.010,0.135
'14:02.986',-0.025,0.115
'14:02.989',-0.060,0.105
'14:02.992',-0.090,0.110
'14:02.994',-0.110,0.100
'14:02.997',-0.130,0.105
'14:03.000',-0.155,0.115
'14:03.003',-0.170,0.135
'14:03.006',-0.195,0.140
'14:03.008',-0.225,0.140
'14:03.011',-0.240,0.145
'14:03.014',-0.260,0.140
'14:03.017',-0.280,0.145
'14:03.019',-0.280,0.155
'14:03.022',-0.300,0.160
'14:03.025',-0.310,0.165
'14:03.028',-0.330,0.195
'14:03.031',-0.365,0.185
'14:03.033',-0.400,0.205
'14:03.036',-0.415,0.200
'14:03.039',-0.435,0.215
'14:03.042',-0.450,0.230
'14:03.044',-0.440,0.245
'14:03.047',-0.435,0.260
'14:03.050',-0.440,0.280
'14:03.053',-0.460,0.300
'14:03.056',-0.470,0.320
'14:03.058',-0.485,0.335
'14:03.061',-0.495,0.350
'14:03.064',-0.495,0.365
'14:03.067',-0.500,0.410
'14:03.069',-0.490,0.445
'14:03.072',-0.480,0.470
'14:03.075',-0.485,0.480
'14:03.078',-0.475,0.485
'14:03.081',-0.455,0.460
'14:03.083',-0.445,0.415
'14:03.086',-0.420,0.360
'14:03.089',-0.400,0.340
'14:03.092',-0.375,0.320
'14:03.094',-0.345,0.285
'14:03.097',-0.340,0.250
'14:03.100',-0.325,0.225
'14:03.103',-0.315,0.200
'14:03.106',-0.300,0.165
'14:03.108',-0.270,0.155
'14:03.111',-0.240,0.140
'14:03.114',-0.230,0.135
'14:03.117',-0.215,0.145
'14:03.119',-0.220,0.150
'14:03.122',-0.225,0.140
'14:03.125',-0.255,0.125
'14:03.128',-0.305,0.105
'14:03.131',-0.345,0.070
'14:03.133',-0.395,0.075
'14:03.136',-0.440,0.065
'14:03.139',-0.495,0.045
'14:03.142',-0.520,0.055
'14:03.144',-0.560,0.050
'14:03.147',-0.575,0.045
'14:03.150',-0.605,0.030
'14:03.153',-0.605,0.030
'14:03.156',-0.605,0.020
'14:03.158',-0.615,0.010
'14:03.161',-0.610,0.010
'14:03.164',-0.605,0.010
'14:03.167',-0.610,0.030
'14:03.169',-0.615,0.045
'14:03.172',-0.610,0.050
'14:03.175',-0.610,0.065
'14:03.178',-0.605,0.095
'14:03.181',-0.590,0.130
'14:03.183',-0.575,0.200
'14:03.186',-0.570,0.300
'14:03.189',-0.570,0.420
'14:03.192',-0.600,0.515
'14:03.194',-0.635,0.595
'14:03.197',-0.655,0.580
'14:03.200',-0.675,0.495
'14:03.203',-0.685,0.340
'14:03.206',-0.675,0.085
'14:03.208',-0.645,-0.275
'14:03.211',-0.590,-0.695
'14:03.214',-0.485,-1.165
'14:03.217',-0.340,-1.635
'14:03.219',-0.105,-2.070
'14:03.222',0.175,-2.420
'14:03.225',0.515,-2.685
'14:03.228',0.885,-2.860
'14:03.231',1.265,-2.970
'14:03.233',1.670,-2.995
'14:03.236',2.060,-2.985
'14:03.239',2.400,-2.950
'14:03.242',2.625,-2.875
'14:03.244',2.705,-2.760
'14:03.247',2.655,-2.595
'14:03.250',2.435,-2.360
'14:03.253',2.110,-2.020
'14:03.256',1.700,-1.550
'14:03.258',1.205,-1.035
'14:03.261',0.635,-0.605
'14:03.264',0.060,-0.310
'14:03.267',-0.420,-0.155
'14:03.269',-0.730,-0.090
'14:03.272',-0.870,-0.090
'14:03.275',-0.870,-0.100
'14:03.278',-0.805,-0.095
'14:03.281',-0.750,-0.070
'14:03.283',-0.715,-0.035
'14:03.286',-0.720,0.005
'14:03.289',-0.760,0.045
'14:03.292',-0.805,0.060
'14:03.294',-0.855,0.095
'14:03.297',-0.890,0.100
'14:03.300',-0.920,0.140
'14:03.303',-0.935,0.160
'14:03.306',-0.935,0.185
'14:03.308',-0.945,0.200
'14:03.311',-0.930,0.235
'14:03.314',-0.935,0.265
'14:03.317',-0.950,0.280
'14:03.319',-0.950,0.305
'14:03.322',-0.975,0.325
'14:03.325',-0.990,0.345
'14:03.328',-1.000,0.365
'14:03.331',-1.005,0.370
'14:03.333',-1.015,0.395
'14:03.336',-1.020,0.430
'14:03.339',-1.020,0.465
'14:03.342',-1.015,0.510
'14:03.344',-1.005,0.555
'14:03.347',-1.010,0.585
'14:03.350',-1.005,0.615
'14:03.353',-1.010,0.645
'14:03.356',-1.010,0.680
'14:03.358',-1.025,0.720
'14:03.361',-1.030,0.730
'14:03.364',-1.045,0.780
'14:03.367',-1.045,0.830
'14:03.369',-1.025,0.865
'14:03.372',-1.005,0.890
'14:03.375',-0.990,0.915
'14:03.378',-0.970,0.940
'14:03.381',-0.950,0.965
'14:03.383',-0.950,1.005
'14:03.386',-0.960,1.010
'14:03.389',-0.960,1.050
'14:03.392',-0.960,1.070
'14:03.394',-0.945,1.095
'14:03.397',-0.925,1.100
'14:03.400',-0.900,1.140
'14:03.403',-0.860,1.150
'14:03.406',-0.845,1.165
'14:03.408',-0.810,1.185
'14:03.411',-0.785,1.205
'14:03.414',-0.745,1.215
'14:03.417',-0.725,1.200
'14:03.419',-0.680,1.200
'14:03.422',-0.660,1.180
'14:03.425',-0.630,1.165
'14:03.428',-0.615,1.160
'14:03.431',-0.595,1.145
'14:03.433',-0.580,1.130
'14:03.436',-0.550,1.115
'14:03.439',-0.520,1.115
'14:03.442',-0.465,1.100
'14:03.444',-0.420,1.075
'14:03.447',-0.385,1.040
'14:03.450',-0.350,0.985
'14:03.453',-0.315,0.965
'14:03.456',-0.280,0.920
'14:03.458',-0.255,0.880
'14:03.461',-0.220,0.830
'14:03.464',-0.185,0.775
'14:03.467',-0.160,0.730
'14:03.469',-0.145,0.695
'14:03.472',-0.125,0.650
'14:03.475',-0.110,0.620
'14:03.478',-0.085,0.590
'14:03.481',-0.075,0.565
'14:03.483',-0.040,0.520
'14:03.486',-0.005,0.495
'14:03.489',0.010,0.445
'14:03.492',0.010,0.390
'14:03.494',0.005,0.355
'14:03.497',-0.010,0.290
'14:03.500',-0.020,0.265
'14:03.503',-0.025,0.240
'14:03.506',-0.035,0.220
'14:03.508',-0.045,0.220
'14:03.511',-0.020,0.205
'14:03.514',-0.035,0.185
'14:03.517',-0.055,0.180
'14:03.519',-0.075,0.165
'14:03.522',-0.100,0.160
'14:03.525',-0.125,0.150
'14:03.528',-0.140,0.135
'14:03.531',-0.160,0.125
'14:03.533',-0.180,0.125
'14:03.536',-0.195,0.120
'14:03.539',-0.215,0.130
'14:03.542',-0.250,0.120
'14:03.544',-0.275,0.150
'14:03.547',-0.275,0.165
'14:03.550',-0.280,0.160
'14:03.553',-0.305,0.175
'14:03.556',-0.335,0.175
'14:03.558',-0.365,0.175
'14:03.561',-0.395,0.175
'14:03.564',-0.425,0.160
'14:03.567',-0.450,0.155
'14:03.569',-0.475,0.170
'14:03.572',-0.485,0.175
'14:03.575',-0.490,0.195
'14:03.578',-0.495,0.205
'14:03.581',-0.510,0.215
'14:03.583',-0.520,0.215
'14:03.586',-0.550,0.195
'14:03.589',-0.575,0.195
'14:03.592',-0.580,0.185
'14:03.594',-0.570,0.180
'14:03.597',-0.550,0.190
'14:03.600',-0.535,0.230
'14:03.603',-0.520,0.250
'14:03.606',-0.520,0.280
'14:03.608',-0.515,0.305
'14:03.611',-0.515,0.325
'14:03.614',-0.525,0.360
'14:03.617',-0.520,0.355
'14:03.619',-0.505,0.375
'14:03.622',-0.480,0.360
'14:03.625',-0.485,0.345
'14:03.628',-0.460,0.325
'14:03.631',-0.435,0.295
'14:03.633',-0.435,0.300
'14:03.636',-0.410,0.265
'14:03.639',-0.375,0.240
'14:03.642',-0.320,0.225
'14:03.644',-0.285,0.195
'14:03.647',-0.245,0.160
'14:03.650',-0.215,0.125
'14:03.653',-0.205,0.120
'14:03.656',-0.210,0.095
'14:03.658',-0.215,0.075
'14:03.661',-0.220,0.070
'14:03.664',-0.240,0.055
'14:03.667',-0.240,0.060
'14:03.669',-0.265,0.055
'14:03.672',-0.290,0.055
'14:03.675',-0.325,0.045
'14:03.678',-0.380,0.040
'14:03.681',-0.440,0.030
'14:03.683',-0.480,0.005
'14:03.686',-0.505,-0.005
'14:03.689',-0.525,-0.025
'14:03.692',-0.540,-0.020
'14:03.694',-0.560,-0.035
'14:03.697',-0.560,-0.035
'14:03.700',-0.580,-0.030
'14:03.703',-0.580,-0.035
'14:03.706',-0.575,-0.040
'14:03.708',-0.575,-0.050
'14:03.711',-0.565,-0.040
'14:03.714',-0.550,-0.040
'14:03.717',-0.540,-0.045
'14:03.719',-0.535,-0.050
'14:03.722',-0.545,-0.040
'14:03.725',-0.550,-0.055
'14:03.728',-0.570,-0.070
'14:03.731',-0.570,-0.085
'14:03.733',-0.565,-0.100
'14:03.736',-0.575,-0.095
'14:03.739',-0.565,-0.075
'14:03.742',-0.540,-0.070
'14:03.744',-0.530,-0.040
'14:03.747',-0.535,-0.010
'14:03.750',-0.535,0.015
'14:03.753',-0.550,0.070
'14:03.756',-0.565,0.110
'14:03.758',-0.575,0.150
'14:03.761',-0.595,0.155
'14:03.764',-0.595,0.105
'14:03.767',-0.580,-0.035
'14:03.769',-0.495,-0.245
'14:03.772',-0.390,-0.525
'14:03.775',-0.180,-0.865
'14:03.778',0.085,-1.230
'14:03.781',0.420,-1.545
'14:03.783',0.820,-1.785
'14:03.786',1.265,-1.910
'14:03.789',1.685,-1.955
'14:03.792',2.010,-1.955
'14:03.794',2.180,-1.915
'14:03.797',2.125,-1.860
'14:03.800',1.855,-1.790
'14:03.803',1.430,-1.705
'14:03.806',0.955,-1.620
'14:03.808',0.440,-1.515
'14:03.811',-0.040,-1.300
'14:03.814',-0.430,-1.055
'14:03.817',-0.760,-0.820
'14:03.819',-1.020,-0.630
'14:03.822',-1.200,-0.495
'14:03.825',-1.290,-0.425
'14:03.828',-1.275,-0.380
'14:03.831',-1.210,-0.330
'14:03.833',-1.110,-0.285
'14:03.836',-1.015,-0.225
'14:03.839',-0.930,-0.170
'14:03.842',-0.865,-0.145
'14:03.844',-0.805,-0.125
'14:03.847',-0.785,-0.105
'14:03.850',-0.800,-0.105
'14:03.853',-0.800,-0.105
'14:03.856',-0.825,-0.095
'14:03.858',-0.855,-0.100
'14:03.861',-0.875,-0.085
'14:03.864',-0.890,-0.075
'14:03.867',-0.900,-0.065
'14:03.869',-0.895,-0.065
'14:03.872',-0.880,-0.065
'14:03.875',-0.865,-0.065
'14:03.878',-0.855,-0.045
'14:03.881',-0.850,-0.030
'14:03.883',-0.850,-0.045
'14:03.886',-0.855,-0.025
'14:03.889',-0.885,-0.015
'14:03.892',-0.890,0.000
'14:03.894',-0.910,0.000
'14:03.897',-0.905,0.005
'14:03.900',-0.890,0.005
'14:03.903',-0.875,0.000
'14:03.906',-0.860,0.010
'14:03.908',-0.865,0.025
'14:03.911',-0.855,0.040
'14:03.914',-0.850,0.060
'14:03.917',-0.845,0.070
'14:03.919',-0.840,0.090
'14:03.922',-0.830,0.095
'14:03.925',-0.820,0.090
'14:03.928',-0.805,0.095
'14:03.931',-0.790,0.090
'14:03.933',-0.790,0.105
'14:03.936',-0.790,0.115
'14:03.939',-0.775,0.150
'14:03.942',-0.740,0.160
'14:03.944',-0.725,0.185
'14:03.947',-0.705,0.190
'14:03.950',-0.685,0.190
'14:03.953',-0.660,0.205
'14:03.956',-0.655,0.205
'14:03.958',-0.640,0.215
'14:03.961',-0.630,0.210
'14:03.964',-0.610,0.225
'14:03.967',-0.605,0.250
'14:03.969',-0.560,0.250
'14:03.972',-0.545,0.280
'14:03.975',-0.510,0.310
'14:03.978',-0.490,0.320
'14:03.981',-0.455,0.335
'14:03.983',-0.435,0.320
'14:03.986',-0.420,0.330
'14:03.989',-0.400,0.315
'14:03.992',-0.380,0.310
'14:03.994',-0.360,0.305
'14:03.997',-0.330,0.305
'14:04.000',-0.285,0.300
'14:04.003',-0.250,0.300
'14:04.006',-0.215,0.290
'14:04.008',-0.190,0.280
'14:04.011',-0.155,0.275
'14:04.014',-0.140,0.280
'14:04.017',-0.100,0.270
'14:04.019',-0.070,0.265
'14:04.022',-0.030,0.245
'14:04.025',-0.010,0.230
'14:04.028',0.030,0.215
'14:04.031',0.040,0.190
'14:04.033',0.055,0.185
'14:04.036',0.075,0.165
'14:04.039',0.105,0.175
'14:04.042',0.130,0.150
'14:04.044',0.150,0.150
'14:04.047',0.155,0.135
'14:04.050',0.160,0.110
'14:04.053',0.175,0.095
'14:04.056',0.175,0.065
'14:04.058',0.175,0.045
'14:04.061',0.175,0.035
'14:04.064',0.185,0.020
'14:04.067',0.170,0.005
'14:04.069',0.160,0.000
'14:04.072',0.135,0.005
'14:04.075',0.110,-0.005
'14:04.078',0.085,0.000
'14:04.081',0.080,0.010
'14:04.083',0.090,0.015
'14:04.086',0.095,0.015
'14:04.089',0.075,0.005
'14:04.092',0.060,0.015
'14:04.094',0.030,0.000
'14:04.097',-0.010,0.005
'14:04.100',-0.065,0.010
'14:04.103',-0.100,0.015
'14:04.106',-0.140,0.045
'14:04.108',-0.170,0.065
'14:04.111',-0.180,0.080
'14:04.114',-0.175,0.085
'14:04.117',-0.195,0.090
'14:04.119',-0.220,0.085
'14:04.122',-0.245,0.085
'14:04.125',-0.275,0.095
'14:04.128',-0.320,0.100
'14:04.131',-0.345,0.105
'14:04.133',-0.380,0.115
'14:04.136',-0.385,0.130
'14:04.139',-0.395,0.150
'14:04.142',-0.400,0.155
'14:04.144',-0.425,0.160
'14:04.147',-0.445,0.165
'14:04.150',-0.475,0.170
'14:04.153',-0.485,0.165
'14:04.156',-0.500,0.160
'14:04.158',-0.505,0.165
'14:04.161',-0.505,0.165
'14:04.164',-0.525,0.165
'14:04.167',-0.535,0.160
'14:04.169',-0.535,0.170
'14:04.172',-0.540,0.185
'14:04.175',-0.545,0.195
'14:04.178',-0.540,0.210
'14:04.181',-0.505,0.245
'14:04.183',-0.495,0.250
'14:04.186',-0.485,0.280
'14:04.189',-0.490,0.285
'14:04.192',-0.515,0.305
'14:04.194',-0.515,0.330
'14:04.197',-0.520,0.350
'14:04.200',-0.530,0.390
'14:04.203',-0.515,0.415
'14:04.206',-0.485,0.425
'14:04.208',-0.455,0.415
'14:04.211',-0.425,0.390
'14:04.214',-0.410,0.355
'14:04.217',-0.375,0.325
'14:04.219',-0.345,0.295
'14:04.222',-0.300,0.280
'14:04.225',-0.270,0.235
'14:04.228',-0.245,0.225
'14:04.231',-0.235,0.195
'14:04.233',-0.215,0.170
'14:04.236',-0.220,0.155
'14:04.239',-0.220,0.140
'14:04.242',-0.200,0.130
'14:04.244',-0.200,0.140
'14:04.247',-0.210,0.140
'14:04.250',-0.215,0.115
'14:04.253',-0.250,0.115
'14:04.256',-0.300,0.090
'14:04.258',-0.370,0.075
'14:04.261',-0.435,0.040
'14:04.264',-0.490,0.020
'14:04.267',-0.535,0.015
'14:04.269',-0.545,0.020
'14:04.272',-0.555,0.020
'14:04.275',-0.545,0.030
'14:04.278',-0.550,0.040
'14:04.281',-0.550,0.050
'14:04.283',-0.560,0.040
'14:04.286',-0.550,0.040
'14:04.289',-0.550,0.010
'14:04.292',-0.555,0.000
'14:04.294',-0.550,0.005
'14:04.297',-0.555,-0.005
'14:04.300',-0.565,0.000
'14:04.303',-0.585,0.005
'14:04.306',-0.575,0.005
'14:04.308',-0.565,0.015
'14:04.311',-0.550,0.000
'14:04.314',-0.545,0.005
'14:04.317',-0.535,0.015
'14:04.319',-0.535,0.030
'14:04.322',-0.545,0.040
'14:04.325',-0.550,0.060
'14:04.328',-0.580,0.085
'14:04.331',-0.595,0.130
'14:04.333',-0.615,0.185
'14:04.336',-0.625,0.200
'14:04.339',-0.620,0.200
'14:04.342',-0.610,0.095
'14:04.344',-0.550,-0.095
'14:04.347',-0.430,-0.420
'14:04.350',-0.230,-0.805
'14:04.353',0.055,-1.195
'14:04.356',0.410,-1.505
'14:04.358',0.835,-1.725
'14:04.361',1.295,-1.840
'14:04.364',1.725,-1.875
'14:04.367',2.075,-1.865
'14:04.369',2.240,-1.830
'14:04.372',2.185,-1.780
'14:04.375',1.935,-1.705
'14:04.378',1.560,-1.640
'14:04.381',1.125,-1.575
'14:04.383',0.670,-1.525
'14:04.386',0.235,-1.405
'14:04.389',-0.155,-1.195
'14:04.392',-0.485,-0.930
'14:04.394',-0.780,-0.680
'14:04.397',-1.040,-0.475
'14:04.400',-1.195,-0.325
'14:04.403',-1.255,-0.235
'14:04.406',-1.205,-0.180
'14:04.408',-1.095,-0.145
'14:04.411',-0.960,-0.120
'14:04.414',-0.860,-0.080
'14:04.417',-0.785,-0.055
'14:04.419',-0.780,-0.050
'14:04.422',-0.810,-0.045
'14:04.425',-0.840,-0.040
'14:04.428',-0.850,-0.050
'14:04.431',-0.890,-0.030
'14:04.433',-0.910,-0.015
'14:04.436',-0.910,-0.005
'14:04.439',-0.930,0.010
'14:04.442',-0.920,0.015
'14:04.444',-0.910,0.035
'14:04.447',-0.910,0.025
'14:04.450',-0.900,0.035
'14:04.453',-0.900,0.045
'14:04.456',-0.905,0.055
'14:04.458',-0.915,0.070
'14:04.461',-0.935,0.075
'14:04.464',-0.940,0.075
'14:04.467',-0.960,0.080
'14:04.469',-0.970,0.090
'14:04.472',-0.960,0.105
'14:04.475',-0.945,0.115
'14:04.478',-0.935,0.110
'14:04.481',-0.930,0.145
'14:04.483',-0.930,0.140
'14:04.486',-0.925,0.155
'14:04.489',-0.935,0.155
'14:04.492',-0.925,0.165
'14:04.494',-0.930,0.155
'14:04.497',-0.930,0.165
'14:04.500',-0.925,0.175
'14:04.503',-0.915,0.190
'14:04.506',-0.900,0.210
'14:04.508',-0.870,0.220
'14:04.511',-0.855,0.245
'14:04.514',-0.830,0.255
'14:04.517',-0.805,0.265
'14:04.519',-0.780,0.275
'14:04.522',-0.755,0.280
'14:04.525',-0.745,0.285
'14:04.528',-0.750,0.305
'14:04.531',-0.740,0.295
'14:04.533',-0.730,0.330
'14:04.536',-0.715,0.340
'14:04.539',-0.680,0.345
'14:04.542',-0.655,0.360
'14:04.544',-0.620,0.370
'14:04.547',-0.585,0.380
'14:04.550',-0.550,0.385
'14:04.553',-0.530,0.395
'14:04.556',-0.505,0.400
'14:04.558',-0.490,0.405
'14:04.561',-0.465,0.395
'14:04.564',-0.445,0.400
'14:04.567',-0.410,0.385
'14:04.569',-0.385,0.385
'14:04.572',-0.350,0.395
'14:04.575',-0.330,0.400
'14:04.578',-0.300,0.415
'14:04.581',-0.270,0.420
'14:04.583',-0.230,0.415
'14:04.586',-0.205,0.395
'14:04.589',-0.165,0.380
'14:04.592',-0.135,0.360
'14:04.594',-0.105,0.335
'14:04.597',-0.095,0.320
'14:04.600',-0.060,0.335
'14:04.603',-0.045,0.315
'14:04.606',-0.015,0.320
'14:04.608',0.015,0.290
'14:04.611',0.045,0.285
'14:04.614',0.060,0.275
'14:04.617',0.070,0.250
'14:04.619',0.080,0.225
'14:04.622',0.075,0.200
'14:04.625',0.070,0.205
'14:04.628',0.070,0.195
'14:04.631',0.060,0.170
'14:04.633',0.065,0.170
'14:04.636',0.075,0.150
'14:04.639',0.075,0.145
'14:04.642',0.070,0.140
'14:04.644',0.050,0.125
'14:04.647',0.045,0.130
'14:04.650',0.030,0.130
'14:04.653',0.020,0.130
'14:04.656',0.010,0.130
'14:04.658',-0.010,0.115
'14:04.661',-0.035,0.105
'14:04.664',-0.065,0.100
'14:04.667',-0.095,0.090
'14:04.669',-0.130,0.110
'14:04.672',-0.160,0.120
'14:04.675',-0.175,0.135
'14:04.678',-0.180,0.140
'14:04.681',-0.185,0.175
'14:04.683',-0.200,0.165
'14:04.686',-0.220,0.170
'14:04.689',-0.240,0.155
'14:04.692',-0.290,0.165
'14:04.694',-0.320,0.165
'14:04.697',-0.345,0.180
'14:04.700',-0.385,0.195
'14:04.703',-0.395,0.205
'14:04.706',-0.385,0.215
'14:04.708',-0.395,0.220
'14:04.711',-0.405,0.230
'14:04.714',-0.420,0.240
'14:04.717',-0.440,0.235
'14:04.719',-0.455,0.250
'14:04.722',-0.470,0.260
'14:04.725',-0.470,0.270
'14:04.728',-0.465,0.280
'14:04.731',-0.455,0.300
'14:04.733',-0.460,0.325
'14:04.736',-0.460,0.360
'14:04.739',-0.460,0.395
'14:04.742',-0.460,0.420
'14:04.744',-0.460,0.450
'14:04.747',-0.455,0.485
'14:04.750',-0.425,0.490
'14:04.753',-0.410,0.495
'14:04.756',-0.390,0.465
'14:04.758',-0.375,0.425
'14:04.761',-0.355,0.380
'14:04.764',-0.340,0.335
'14:04.767',-0.320,0.300
'14:04.769',-0.280,0.285
'14:04.772',-0.250,0.280
'14:04.775',-0.220,0.265
'14:04.778',-0.200,0.245
'14:04.781',-0.195,0.225
'14:04.783',-0.195,0.200
'14:04.786',-0.175,0.195
'14:04.789',-0.170,0.175
'14:04.792',-0.165,0.155
'14:04.794',-0.160,0.155
'14:04.797',-0.165,0.135
'14:04.800',-0.185,0.125
'14:04.803',-0.220,0.130
'14:04.806',-0.270,0.120
'14:04.808',-0.325,0.110
'14:04.811',-0.375,0.100
'14:04.814',-0.430,0.110
'14:04.817',-0.460,0.090
'14:04.819',-0.485,0.090
'14:04.822',-0.500,0.075
'14:04.825',-0.530,0.070
'14:04.828',-0.545,0.060
'14:04.831',-0.550,0.045
'14:04.833',-0.565,0.040
'14:04.836',-0.560,0.035
'14:04.839',-0.555,0.035
'14:04.842',-0.550,0.040
'14:04.844',-0.545,0.050
'14:04.847',-0.530,0.065
'14:04.850',-0.535,0.060
'14:04.853',-0.540,0.050
'14:04.856',-0.545,0.030
'14:04.858',-0.565,0.030
'14:04.861',-0.565,0.025
'14:04.864',-0.560,0.025
'14:04.867',-0.555,0.030
'14:04.869',-0.550,0.040
'14:04.872',-0.550,0.045
'14:04.875',-0.545,0.050
'14:04.878',-0.550,0.055
'14:04.881',-0.555,0.085
'14:04.883',-0.555,0.120
'14:04.886',-0.560,0.175
'14:04.889',-0.570,0.200
'14:04.892',-0.580,0.205
'14:04.894',-0.600,0.110
'14:04.897',-0.575,-0.060
'14:04.900',-0.495,-0.330
'14:04.903',-0.315,-0.690
'14:04.906',-0.045,-1.070
'14:04.908',0.310,-1.415
'14:04.911',0.730,-1.680
'14:04.914',1.195,-1.865
'14:04.917',1.660,-1.950
'14:04.919',2.060,-1.975
'14:04.922',2.315,-1.955
'14:04.925',2.375,-1.935
'14:04.928',2.240,-1.895
'14:04.931',1.965,-1.835
'14:04.933',1.610,-1.775
'14:04.936',1.185,-1.685
'14:04.939',0.755,-1.565
'14:04.942',0.335,-1.325
'14:04.944',-0.060,-1.025
'14:04.947',-0.415,-0.690
'14:04.950',-0.735,-0.405
'14:04.953',-0.965,-0.205
'14:04.956',-1.080,-0.110
'14:04.958',-1.085,-0.080
'14:04.961',-1.010,-0.080
'14:04.964',-0.890,-0.100
'14:04.967',-0.785,-0.115
'14:04.969',-0.730,-0.110
'14:04.972',-0.710,-0.085
'14:04.975',-0.720,-0.055
'14:04.978',-0.745,-0.030
'14:04.981',-0.775,-0.005
'14:04.983',-0.795,-0.010
'14:04.986',-0.810,0.005
'14:04.989',-0.830,0.005
'14:04.992',-0.850,-0.005
'14:04.994',-0.865,-0.010
'14:04.997',-0.870,-0.015
'14:05.000',-0.870,-0.010
'14:05.003',-0.875,0.010
'14:05.006',-0.865,0.025
'14:05.008',-0.875,0.045
'14:05.011',-0.885,0.070
'14:05.014',-0.885,0.075
'14:05.017',-0.895,0.070
'14:05.019',-0.910,0.075
'14:05.022',-0.905,0.070
'14:05.025',-0.895,0.070
'14:05.028',-0.895,0.070
'14:05.031',-0.895,0.090
'14:05.033',-0.920,0.105
'14:05.036',-0.915,0.130
'14:05.039',-0.920,0.150
'14:05.042',-0.930,0.155
'14:05.044',-0.935,0.165
'14:05.047',-0.910,0.180
'14:05.050',-0.895,0.170
'14:05.053',-0.885,0.180
'14:05.056',-0.870,0.195
'14:05.058',-0.875,0.205
'14:05.061',-0.880,0.215
'14:05.064',-0.885,0.220
'14:05.067',-0.875,0.230
'14:05.069',-0.860,0.235
'14:05.072',-0.830,0.245
'14:05.075',-0.810,0.245
'14:05.078',-0.785,0.275
'14:05.081',-0.770,0.290
'14:05.083',-0.760,0.300
'14:05.086',-0.750,0.320
'14:05.089',-0.750,0.330
'14:05.092',-0.720,0.345
'14:05.094',-0.690,0.345
'14:05.097',-0.670,0.340
'14:05.100',-0.645,0.350
'14:05.103',-0.610,0.350
'14:05.106',-0.585,0.375
'14:05.108',-0.550,0.395
'14:05.111',-0.520,0.415
'14:05.114',-0.485,0.420
'14:05.117',-0.435,0.425
'14:05.119',-0.405,0.405
'14:05.122',-0.370,0.415
'14:05.125',-0.330,0.410
'14:05.128',-0.310,0.405
'14:05.131',-0.290,0.410
'14:05.133',-0.275,0.420
'14:05.136',-0.235,0.425
'14:05.139',-0.195,0.430
'14:05.142',-0.140,0.420
'14:05.144',-0.090,0.425
'14:05.147',-0.040,0.425
'14:05.150',-0.020,0.410
'14:05.153',0.015,0.410
'14:05.156',0.040,0.410
'14:05.158',0.060,0.400
'14:05.161',0.090,0.375
'14:05.164',0.105,0.355
'14:05.167',0.130,0.345
'14:05.169',0.145,0.315
'14:05.172',0.155,0.315
'14:05.175',0.165,0.325
'14:05.178',0.170,0.320
'14:05.181',0.180,0.330
'14:05.183',0.195,0.295
'14:05.186',0.210,0.285
'14:05.189',0.220,0.270
'14:05.192',0.220,0.250
'14:05.194',0.215,0.235
'14:05.197',0.185,0.210
'14:05.200',0.150,0.205
'14:05.203',0.130,0.200
'14:05.206',0.135,0.200
'14:05.208',0.130,0.185
'14:05.211',0.135,0.190
'14:05.214',0.135,0.170
'14:05.217',0.110,0.155
'14:05.219',0.080,0.145
'14:05.222',0.050,0.150
'14:05.225',0.005,0.140
'14:05.228',-0.005,0.145
'14:05.231',-0.020,0.135
'14:05.233',-0.035,0.125
'14:05.236',-0.045,0.130
'14:05.239',-0.065,0.145
'14:05.242',-0.080,0.145
'14:05.244',-0.100,0.165
'14:05.247',-0.135,0.180
'14:05.250',-0.165,0.190
'14:05.253',-0.180,0.210
'14:05.256',-0.200,0.210
'14:05.258',-0.220,0.195
'14:05.261',-0.260,0.190
'14:05.264',-0.300,0.190
'14:05.267',-0.345,0.205
'14:05.269',-0.360,0.225
'14:05.272',-0.360,0.240
'14:05.275',-0.355,0.255
'14:05.278',-0.355,0.275
'14:05.281',-0.350,0.260
'14:05.283',-0.350,0.285
'14:05.286',-0.355,0.315
'14:05.289',-0.375,0.325
'14:05.292',-0.385,0.360
'14:05.294',-0.390,0.400
'14:05.297',-0.390,0.400
'14:05.300',-0.390,0.430
'14:05.303',-0.385,0.435
'14:05.306',-0.385,0.425
'14:05.308',-0.370,0.410
'14:05.311',-0.355,0.375
'14:05.314',-0.320,0.360
'14:05.317',-0.275,0.345
'14:05.319',-0.260,0.320
'14:05.322',-0.240,0.295
'14:05.325',-0.220,0.260
'14:05.328',-0.215,0.210
'14:05.331',-0.225,0.160
'14:05.333',-0.220,0.130
'14:05.336',-0.190,0.100
'14:05.339',-0.175,0.115
'14:05.342',-0.145,0.110
'14:05.344',-0.135,0.120
'14:05.347',-0.115,0.125
'14:05.350',-0.125,0.090
'14:05.353',-0.155,0.075
'14:05.356',-0.210,0.070
'14:05.358',-0.270,0.045
'14:05.361',-0.325,0.035
'14:05.364',-0.380,0.035
'14:05.367',-0.415,0.045
'14:05.369',-0.445,0.045
'14:05.372',-0.470,0.060
'14:05.375',-0.490,0.065
'14:05.378',-0.495,0.075
'14:05.381',-0.490,0.115
'14:05.383',-0.450,0.165
'14:05.386',-0.415,0.265
'14:05.389',-0.400,0.365
'14:05.392',-0.400,0.485
'14:05.394',-0.420,0.585
'14:05.397',-0.450,0.600
'14:05.400',-0.475,0.540
'14:05.403',-0.490,0.355
'14:05.406',-0.485,0.090
'14:05.408',-0.445,-0.275
'14:05.411',-0.390,-0.655
'14:05.414',-0.290,-1.050
'14:05.417',-0.175,-1.405
'14:05.419',-0.020,-1.725
'14:05.422',0.130,-2.010
'14:05.425',0.295,-2.255
'14:05.428',0.475,-2.475
'14:05.431',0.675,-2.675
'14:05.433',0.900,-2.810
'14:05.436',1.160,-2.905
'14:05.439',1.410,-2.950
'14:05.442',1.630,-2.970
'14:05.444',1.845,-2.970
'14:05.447',2.030,-2.965
'14:05.450',2.210,-2.980
'14:05.453',2.400,-2.990
'14:05.456',2.560,-2.980
'14:05.458',2.700,-2.965
'14:05.461',2.805,-2.930
'14:05.464',2.885,-2.885
'14:05.467',2.930,-2.810
'14:05.469',2.955,-2.710
'14:05.472',2.920,-2.575
'14:05.475',2.850,-2.400
'14:05.478',2.695,-2.185
'14:05.481',2.445,-1.925
'14:05.483',2.100,-1.615
'14:05.486',1.645,-1.180
'14:05.489',1.125,-0.720
'14:05.492',0.575,-0.300
'14:05.494',0.035,-0.015
'14:05.497',-0.415,0.140
'14:05.500',-0.720,0.205
'14:05.503',-0.865,0.220
'14:05.506',-0.875,0.240
'14:05.508',-0.830,0.255
'14:05.511',-0.775,0.295
'14:05.514',-0.730,0.330
'14:05.517',-0.720,0.400
'14:05.519',-0.740,0.435
'14:05.522',-0.795,0.475
'14:05.525',-0.845,0.515
'14:05.528',-0.880,0.540
'14:05.531',-0.930,0.575
'14:05.533',-0.965,0.605
'14:05.536',-0.985,0.655
'14:05.539',-0.990,0.695
'14:05.542',-0.985,0.755
'14:05.544',-0.990,0.815
'14:05.547',-0.995,0.870
'14:05.550',-1.020,0.920
'14:05.553',-1.040,0.980
'14:05.556',-1.070,1.020
'14:05.558',-1.080,1.060
'14:05.561',-1.090,1.085
'14:05.564',-1.100,1.145
'14:05.567',-1.115,1.190
'14:05.569',-1.130,1.230
'14:05.572',-1.135,1.275
'14:05.575',-1.160,1.325
'14:05.578',-1.165,1.375
'14:05.581',-1.170,1.420
'14:05.583',-1.180,1.475
'14:05.586',-1.180,1.535
'14:05.589',-1.185,1.585
'14:05.592',-1.190,1.610
'14:05.594',-1.210,1.640
'14:05.597',-1.220,1.670
'14:05.600',-1.230,1.700
'14:05.603',-1.230,1.735
'14:05.606',-1.220,1.770
'14:05.608',-1.215,1.810
'14:05.611',-1.210,1.860
'14:05.614',-1.200,1.870
'14:05.617',-1.200,1.885
'14:05.619',-1.210,1.895
'14:05.622',-1.190,1.890
'14:05.625',-1.190,1.880
'14:05.628',-1.185,1.895
'14:05.631',-1.170,1.900
'14:05.633',-1.150,1.910
'14:05.636',-1.140,1.920
'14:05.639',-1.095,1.920
'14:05.642',-1.080,1.905
'14:05.644',-1.045,1.895
'14:05.647',-1.005,1.875
'14:05.650',-0.965,1.845
'14:05.653',-0.920,1.820
'14:05.656',-0.885,1.780
'14:05.658',-0.860,1.755
'14:05.661',-0.860,1.720
'14:05.664',-0.820,1.670
'14:05.667',-0.780,1.615
'14:05.669',-0.740,1.580
'14:05.672',-0.695,1.545
'14:05.675',-0.650,1.515
'14:05.678',-0.610,1.485
'14:05.681',-0.575,1.435
'14:05.683',-0.535,1.385
'14:05.686',-0.500,1.320
'14:05.689',-0.460,1.240
'14:05.692',-0.415,1.180
'14:05.694',-0.380,1.105
'14:05.697',-0.335,1.045
'14:05.700',-0.300,0.990
'14:05.703',-0.275,0.935
'14:05.706',-0.235,0.895
'14:05.708',-0.195,0.855
'14:05.711',-0.160,0.790
'14:05.714',-0.125,0.745
'14:05.717',-0.105,0.700
'14:05.719',-0.090,0.655
'14:05.722',-0.090,0.620
'14:05.725',-0.100,0.575
'14:05.728',-0.115,0.520
'14:05.731',-0.140,0.490
'14:05.733',-0.135,0.460
'14:05.736',-0.130,0.425
'14:05.739',-0.110,0.395
'14:05.742',-0.110,0.365
'14:05.744',-0.090,0.355
'14:05.747',-0.100,0.355
'14:05.750',-0.105,0.340
'14:05.753',-0.125,0.330
'14:05.756',-0.135,0.320
'14:05.758',-0.145,0.290
'14:05.761',-0.160,0.270
'14:05.764',-0.170,0.250
'14:05.767',-0.195,0.255
'14:05.769',-0.235,0.260
'14:05.772',-0.260,0.260
'14:05.775',-0.290,0.270
'14:05.778',-0.305,0.280
'14:05.781',-0.305,0.295
'14:05.783',-0.305,0.295
'14:05.786',-0.310,0.285
'14:05.789',-0.320,0.270
'14:05.792',-0.340,0.250
'14:05.794',-0.375,0.240
'14:05.797',-0.390,0.230
'14:05.800',-0.410,0.220
'14:05.803',-0.415,0.225
'14:05.806',-0.410,0.225
'14:05.808',-0.405,0.230
'14:05.811',-0.405,0.220
'14:05.814',-0.405,0.200
'14:05.817',-0.410,0.190
'14:05.819',-0.410,0.180
'14:05.822',-0.410,0.165
'14:05.825',-0.405,0.170
'14:05.828',-0.385,0.170
'14:05.831',-0.380,0.170
'14:05.833',-0.365,0.185
'14:05.836',-0.385,0.205
'14:05.839',-0.390,0.245
'14:05.842',-0.385,0.255
'14:05.844',-0.365,0.295
'14:05.847',-0.340,0.325
'14:05.850',-0.320,0.350
'14:05.853',-0.310,0.365
'14:05.856',-0.315,0.365
'14:05.858',-0.315,0.350
'14:05.861',-0.295,0.325
'14:05.864',-0.290,0.305
'14:05.867',-0.265,0.305
'14:05.869',-0.240,0.295
'14:05.872',-0.200,0.280
'14:05.875',-0.170,0.265
'14:05.878',-0.135,0.245
'14:05.881',-0.130,0.225
'14:05.883',-0.110,0.180
'14:05.886',-0.100,0.140
'14:05.889',-0.095,0.125
'14:05.892',-0.075,0.095
'14:05.894',-0.055,0.100
'14:05.897',-0.045,0.090
'14:05.900',-0.055,0.085
'14:05.903',-0.080,0.065
'14:05.906',-0.105,0.055
'14:05.908',-0.150,0.040
'14:05.911',-0.210,0.025
'14:05.914',-0.250,0.025
'14:05.917',-0.280,0.020
'14:05.919',-0.315,0.025
'14:05.922',-0.345,0.020
'14:05.925',-0.365,0.000
'14:05.928',-0.400,-0.015
'14:05.931',-0.410,-0.030
'14:05.933',-0.420,-0.030
'14:05.936',-0.420,-0.035
'14:05.939',-0.420,-0.020
'14:05.942',-0.410,-0.020
'14:05.944',-0.410,-0.010
'14:05.947',-0.400,-0.010
'14:05.950',-0.405,-0.025
'14:05.953',-0.400,-0.035
'14:05.956',-0.400,-0.025
'14:05.958',-0.390,-0.030
'14:05.961',-0.370,-0.030
'14:05.964',-0.360,-0.030
'14:05.967',-0.360,-0.040
'14:05.969',-0.370,-0.030
'14:05.972',-0.380,-0.030
'14:05.975',-0.390,-0.025
'14:05.978',-0.395,-0.010
'14:05.981',-0.385,0.030
'14:05.983',-0.380,0.055
'14:05.986',-0.390,0.110
'14:05.989',-0.395,0.165
'14:05.992',-0.435,0.190
'14:05.994',-0.445,0.155
'14:05.997',-0.460,0.035
'14:06.000',-0.415,-0.180
'14:06.003',-0.315,-0.490
'14:06.006',-0.110,-0.850
'14:06.008',0.180,-1.215
'14:06.011',0.515,-1.505
'14:06.014',0.900,-1.695
'14:06.017',1.340,-1.805
'14:06.019',1.760,-1.870
'14:06.022',2.110,-1.880
'14:06.025',2.360,-1.875
'14:06.028',2.465,-1.845
'14:06.031',2.390,-1.795
'14:06.033',2.120,-1.720
'14:06.036',1.725,-1.615
'14:06.039',1.260,-1.505
'14:06.042',0.755,-1.375
'14:06.044',0.265,-1.180
'14:06.047',-0.170,-0.940
'14:06.050',-0.555,-0.715
'14:06.053',-0.855,-0.540
'14:06.056',-1.055,-0.435
'14:06.058',-1.155,-0.350
'14:06.061',-1.135,-0.300
'14:06.064',-1.050,-0.255
'14:06.067',-0.945,-0.240
'14:06.069',-0.835,-0.205
'14:06.072',-0.745,-0.175
'14:06.075',-0.680,-0.135
'14:06.078',-0.645,-0.105
'14:06.081',-0.625,-0.075
'14:06.083',-0.635,-0.075
'14:06.086',-0.650,-0.070
'14:06.089',-0.675,-0.065
'14:06.092',-0.695,-0.060
'14:06.094',-0.710,-0.060
'14:06.097',-0.720,-0.060
'14:06.100',-0.715,-0.045
'14:06.103',-0.720,-0.015
'14:06.106',-0.720,-0.010
'14:06.108',-0.715,0.000
'14:06.111',-0.725,0.000
'14:06.114',-0.735,0.010
'14:06.117',-0.745,0.015
'14:06.119',-0.740,0.010
'14:06.122',-0.740,0.015
'14:06.125',-0.720,0.015
'14:06.128',-0.720,0.015
'14:06.131',-0.730,0.025
'14:06.133',-0.735,0.030
'14:06.136',-0.740,0.035
'14:06.139',-0.730,0.050
'14:06.142',-0.715,0.060
'14:06.144',-0.685,0.080
'14:06.147',-0.660,0.105
'14:06.150',-0.655,0.110
'14:06.153',-0.670,0.120
'14:06.156',-0.670,0.130
'14:06.158',-0.665,0.110
'14:06.161',-0.650,0.105
'14:06.164',-0.635,0.105
'14:06.167',-0.615,0.115
'14:06.169',-0.585,0.125
'14:06.172',-0.575,0.155
'14:06.175',-0.555,0.185
'14:06.178',-0.530,0.195
'14:06.181',-0.510,0.230
'14:06.183',-0.480,0.225
'14:06.186',-0.460,0.220
'14:06.189',-0.430,0.220
'14:06.192',-0.410,0.225
'14:06.194',-0.395,0.235
'14:06.197',-0.380,0.250
'14:06.200',-0.370,0.265
'14:06.203',-0.345,0.255
'14:06.206',-0.310,0.270
'14:06.208',-0.275,0.275
'14:06.211',-0.250,0.280
'14:06.214',-0.205,0.285
'14:06.217',-0.160,0.280
'14:06.219',-0.145,0.280
'14:06.222',-0.115,0.280
'14:06.225',-0.085,0.265
'14:06.228',-0.055,0.260
'14:06.231',-0.005,0.230
'14:06.233',0.030,0.230
'14:06.236',0.065,0.245
'14:06.239',0.105,0.230
'14:06.242',0.125,0.235
'14:06.244',0.150,0.220
'14:06.247',0.190,0.210
'14:06.250',0.250,0.200
'14:06.253',0.290,0.165
'14:06.256',0.320,0.145
'14:06.258',0.330,0.110
'14:06.261',0.330,0.100
'14:06.264',0.335,0.095
'14:06.267',0.325,0.070
'14:06.269',0.325,0.080
'14:06.272',0.355,0.055
'14:06.275',0.370,0.040
'14:06.278',0.400,0.045
'14:06.281',0.415,0.030
'14:06.283',0.405,0.035
'14:06.286',0.405,0.045
'14:06.289',0.395,0.035
'14:06.292',0.370,0.015
'14:06.294',0.360,0.005
'14:06.297',0.340,-0.010
'14:06.300',0.330,-0.015
'14:06.303',0.300,0.000
'14:06.306',0.260,0.010
'14:06.308',0.215,0.025
'14:06.311',0.200,0.045
'14:06.314',0.170,0.055
'14:06.317',0.155,0.065
'14:06.319',0.120,0.060
'14:06.322',0.095,0.065
'14:06.325',0.055,0.065
'14:06.328',0.030,0.065
'14:06.331',-0.010,0.090
'14:06.333',-0.055,0.105
'14:06.336',-0.100,0.125
'14:06.339',-0.120,0.140
'14:06.342',-0.135,0.150
'14:06.344',-0.145,0.160
'14:06.347',-0.160,0.175
'14:06.350',-0.175,0.175
'14:06.353',-0.200,0.175
'14:06.356',-0.235,0.185
'14:06.358',-0.260,0.180
'14:06.361',-0.265,0.175
'14:06.364',-0.290,0.165
'14:06.367',-0.310,0.175
'14:06.369',-0.315,0.170
'14:06.372',-0.345,0.180
'14:06.375',-0.345,0.205
'14:06.378',-0.355,0.200
'14:06.381',-0.345,0.210
'14:06.383',-0.315,0.210
'14:06.386',-0.290,0.215
'14:06.389',-0.285,0.205
'14:06.392',-0.285,0.210
'14:06.394',-0.290,0.210
'14:06.397',-0.310,0.230
'14:06.400',-0.320,0.240
'14:06.403',-0.325,0.260
'14:06.406',-0.320,0.305
'14:06.408',-0.295,0.350
'14:06.411',-0.285,0.375
'14:06.414',-0.275,0.400
'14:06.417',-0.275,0.415
'14:06.419',-0.255,0.395
'14:06.422',-0.240,0.385
'14:06.425',-0.220,0.355
'14:06.428',-0.195,0.330
'14:06.431',-0.170,0.305
'14:06.433',-0.135,0.280
'14:06.436',-0.105,0.260
'14:06.439',-0.085,0.225
'14:06.442',-0.075,0.195
'14:06.444',-0.060,0.165
'14:06.447',-0.040,0.155
'14:06.450',-0.010,0.140
'14:06.453',0.000,0.120
'14:06.456',0.005,0.110
'14:06.458',0.000,0.095
'14:06.461',-0.030,0.070
'14:06.464',-0.065,0.060
'14:06.467',-0.120,0.045
'14:06.469',-0.170,0.030
'14:06.472',-0.230,0.025
'14:06.475',-0.280,0.020
'14:06.478',-0.310,0.010
'14:06.481',-0.330,0.015
'14:06.483',-0.355,0.005
'14:06.486',-0.370,0.005
'14:06.489',-0.370,0.000
'14:06.492',-0.375,-0.005
'14:06.494',-0.360,-0.015
'14:06.497',-0.370,-0.020
'14:06.500',-0.375,-0.025
'14:06.503',-0.375,-0.040
'14:06.506',-0.375,-0.035
'14:06.508',-0.395,-0.040
'14:06.511',-0.385,-0.025
'14:06.514',-0.380,-0.020
'14:06.517',-0.365,-0.010
'14:06.519',-0.340,-0.005
'14:06.522',-0.335,-0.015
'14:06.525',-0.345,-0.040
'14:06.528',-0.360,-0.050
'14:06.531',-0.370,-0.055
'14:06.533',-0.385,-0.035
'14:06.536',-0.390,-0.005
'14:06.539',-0.390,0.040
'14:06.542',-0.390,0.095
'14:06.544',-0.395,0.150
'14:06.547',-0.410,0.185
'14:06.550',-0.425,0.145
'14:06.553',-0.430,0.030
'14:06.556',-0.385,-0.200
'14:06.558',-0.275,-0.525
'14:06.561',-0.080,-0.895
'14:06.564',0.210,-1.250
'14:06.567',0.530,-1.545
'14:06.569',0.945,-1.740
'14:06.572',1.395,-1.855
'14:06.575',1.845,-1.890
'14:06.578',2.215,-1.890
'14:06.581',2.465,-1.855
'14:06.583',2.540,-1.820
'14:06.586',2.400,-1.770
'14:06.589',2.100,-1.715
'14:06.592',1.695,-1.660
'14:06.594',1.230,-1.585
'14:06.597',0.725,-1.455
'14:06.600',0.230,-1.240
'14:06.603',-0.200,-0.955
'14:06.606',-0.580,-0.695
'14:06.608',-0.870,-0.470
'14:06.611',-1.050,-0.340
'14:06.614',-1.085,-0.250
'14:06.617',-1.020,-0.205
'14:06.619',-0.900,-0.190
'14:06.622',-0.775,-0.185
'14:06.625',-0.660,-0.160
'14:06.628',-0.590,-0.145
'14:06.631',-0.560,-0.135
'14:06.633',-0.585,-0.115
'14:06.636',-0.615,-0.095
'14:06.639',-0.660,-0.090
'14:06.642',-0.690,-0.095
'14:06.644',-0.720,-0.080
'14:06.647',-0.720,-0.060
'14:06.650',-0.705,-0.050
'14:06.653',-0.705,-0.035
'14:06.656',-0.685,-0.035
'14:06.658',-0.685,-0.025
'14:06.661',-0.705,-0.015
'14:06.664',-0.720,-0.015
'14:06.667',-0.740,-0.015
'14:06.669',-0.750,-0.020
'14:06.672',-0.755,0.015
'14:06.675',-0.740,0.020
'14:06.678',-0.730,0.040
'14:06.681',-0.720,0.045
'14:06.683',-0.720,0.060
'14:06.686',-0.730,0.045
'14:06.689',-0.735,0.045
'14:06.692',-0.755,0.055
'14:06.694',-0.770,0.055
'14:06.697',-0.760,0.060
'14:06.700',-0.750,0.070
'14:06.703',-0.745,0.085
'14:06.706',-0.740,0.105
'14:06.708',-0.720,0.120
'14:06.711',-0.715,0.125
'14:06.714',-0.710,0.140
'14:06.717',-0.685,0.145
'14:06.719',-0.680,0.165
'14:06.722',-0.665,0.165
'14:06.725',-0.640,0.180
'14:06.728',-0.625,0.175
'14:06.731',-0.610,0.195
'14:06.733',-0.615,0.205
'14:06.736',-0.610,0.210
'14:06.739',-0.605,0.230
'14:06.742',-0.570,0.250
'14:06.744',-0.535,0.270
'14:06.747',-0.485,0.295
'14:06.750',-0.450,0.305
'14:06.753',-0.425,0.315
'14:06.756',-0.395,0.330
'14:06.758',-0.385,0.325
'14:06.761',-0.360,0.330
'14:06.764',-0.325,0.325
'14:06.767',-0.295,0.320
'14:06.769',-0.270,0.350
'14:06.772',-0.245,0.350
'14:06.775',-0.215,0.365
'14:06.778',-0.190,0.380
'14:06.781',-0.160,0.385
'14:06.783',-0.120,0.375
'14:06.786',-0.080,0.365
'14:06.789',-0.045,0.360
'14:06.792',-0.010,0.350
'14:06.794',0.015,0.340
'14:06.797',0.035,0.330
'14:06.800',0.050,0.315
'14:06.803',0.075,0.290
'14:06.806',0.110,0.275
'14:06.808',0.145,0.240
'14:06.811',0.185,0.250
'14:06.814',0.220,0.255
'14:06.817',0.245,0.245
'14:06.819',0.260,0.220
'14:06.822',0.265,0.215
'14:06.825',0.265,0.185
'14:06.828',0.275,0.165
'14:06.831',0.290,0.135
'14:06.833',0.300,0.140
'14:06.836',0.300,0.135
'14:06.839',0.305,0.130
'14:06.842',0.305,0.120
'14:06.844',0.290,0.120
'14:06.847',0.290,0.115
'14:06.850',0.290,0.085
'14:06.853',0.290,0.075
'14:06.856',0.270,0.065
'14:06.858',0.265,0.055
'14:06.861',0.240,0.035
'14:06.864',0.195,0.050
'14:06.867',0.170,0.040
'14:06.869',0.140,0.050
'14:06.872',0.115,0.050
'14:06.875',0.095,0.045
'14:06.878',0.075,0.060
'14:06.881',0.065,0.065
'14:06.883',0.050,0.075
'14:06.886',0.020,0.090
'14:06.889',-0.010,0.085
'14:06.892',-0.045,0.095
'14:06.894',-0.075,0.095
'14:06.897',-0.095,0.100
'14:06.900',-0.105,0.100
'14:06.903',-0.130,0.120
'14:06.906',-0.140,0.135
'14:06.908',-0.165,0.160
'14:06.911',-0.195,0.170
'14:06.914',-0.210,0.200
'14:06.917',-0.210,0.190
'14:06.919',-0.205,0.190
'14:06.922',-0.215,0.185
'14:06.925',-0.210,0.185
'14:06.928',-0.215,0.205
'14:06.931',-0.230,0.230
'14:06.933',-0.240,0.265
'14:06.936',-0.250,0.290
'14:06.939',-0.240,0.320
'14:06.942',-0.235,0.345
'14:06.944',-0.235,0.375
'14:06.947',-0.215,0.410
'14:06.950',-0.215,0.415
'14:06.953',-0.215,0.410
'14:06.956',-0.205,0.395
'14:06.958',-0.190,0.360
'14:06.961',-0.160,0.310
'14:06.964',-0.135,0.270
'14:06.967',-0.085,0.240
'14:06.969',-0.070,0.225
'14:06.972',-0.040,0.195
'14:06.975',-0.025,0.170
'14:06.978',-0.025,0.155
'14:06.981',-0.010,0.150
'14:06.983',0.005,0.130
'14:06.986',0.030,0.115
'14:06.989',0.030,0.100
'14:06.992',0.050,0.090
'14:06.994',0.045,0.090
'14:06.997',0.015,0.075
'14:07.000',-0.005,0.055
'14:07.003',-0.060,0.055
'14:07.006',-0.090,0.055
'14:07.008',-0.125,0.035
'14:07.011',-0.160,0.035
'14:07.014',-0.200,0.035
'14:07.017',-0.235,0.025
'14:07.019',-0.280,0.010
'14:07.022',-0.310,-0.005
'14:07.025',-0.330,-0.020
'14:07.028',-0.350,-0.015
'14:07.031',-0.350,-0.020
'14:07.033',-0.350,-0.030
'14:07.036',-0.340,-0.030
'14:07.039',-0.340,-0.030
'14:07.042',-0.335,-0.015
'14:07.044',-0.340,-0.025
'14:07.047',-0.345,-0.010
'14:07.050',-0.350,-0.010
'14:07.053',-0.345,-0.025
'14:07.056',-0.345,-0.040
'14:07.058',-0.340,-0.040
'14:07.061',-0.345,-0.060
'14:07.064',-0.350,-0.075
'14:07.067',-0.350,-0.055
'14:07.069',-0.360,-0.045
'14:07.072',-0.365,-0.035
'14:07.075',-0.365,-0.025
'14:07.078',-0.350,-0.010
'14:07.081',-0.330,0.010
'14:07.083',-0.330,0.055
'14:07.086',-0.345,0.095
'14:07.089',-0.355,0.125
'14:07.092',-0.395,0.125
'14:07.094',-0.420,0.075
'14:07.097',-0.410,-0.045
'14:07.100',-0.350,-0.265
'14:07.103',-0.225,-0.565
'14:07.106',-0.010,-0.920
'14:07.108',0.275,-1.265
'14:07.111',0.595,-1.530
'14:07.114',0.950,-1.735
'14:07.117',1.330,-1.880
'14:07.119',1.720,-1.960
'14:07.122',2.075,-1.980
'14:07.125',2.325,-1.980
'14:07.128',2.415,-1.940
'14:07.131',2.330,-1.910
'14:07.133',2.075,-1.850
'14:07.136',1.705,-1.765
'14:07.139',1.275,-1.660
'14:07.142',0.825,-1.500
'14:07.144',0.390,-1.220
'14:07.147',0.015,-0.885
'14:07.150',-0.335,-0.565
'14:07.153',-0.620,-0.335
'14:07.156',-0.815,-0.185
'14:07.158',-0.915,-0.145
'14:07.161',-0.900,-0.150
'14:07.164',-0.800,-0.170
'14:07.167',-0.690,-0.185
'14:07.169',-0.590,-0.190
'14:07.172',-0.515,-0.150
'14:07.175',-0.500,-0.130
'14:07.178',-0.510,-0.105
'14:07.181',-0.540,-0.080
'14:07.183',-0.610,-0.080
'14:07.186',-0.625,-0.085
'14:07.189',-0.645,-0.075
'14:07.192',-0.655,-0.085
'14:07.194',-0.660,-0.070
'14:07.197',-0.660,-0.070
'14:07.200',-0.660,-0.055
'14:07.203',-0.675,-0.050
'14:07.206',-0.680,-0.055
'14:07.208',-0.690,-0.025
'14:07.211',-0.695,-0.020
'14:07.214',-0.705,-0.010
'14:07.217',-0.720,0.010
'14:07.219',-0.700,0.025
'14:07.222',-0.705,0.030
'14:07.225',-0.715,0.035
'14:07.228',-0.720,0.025
'14:07.231',-0.750,0.015
'14:07.233',-0.785,0.020
'14:07.236',-0.765,0.030
'14:07.239',-0.760,0.040
'14:07.242',-0.765,0.070
'14:07.244',-0.735,0.090
'14:07.247',-0.735,0.100
'14:07.250',-0.725,0.120
'14:07.253',-0.725,0.135
'14:07.256',-0.730,0.135
'14:07.258',-0.725,0.125
'14:07.261',-0.730,0.145
'14:07.264',-0.725,0.145
'14:07.267',-0.705,0.165
'14:07.269',-0.685,0.190
'14:07.272',-0.670,0.205
'14:07.275',-0.660,0.210
'14:07.278',-0.655,0.230
'14:07.281',-0.620,0.245
'14:07.283',-0.595,0.250
'14:07.286',-0.575,0.280
'14:07.289',-0.530,0.290
'14:07.292',-0.515,0.290
'14:07.294',-0.495,0.295
'14:07.297',-0.485,0.300
'14:07.300',-0.470,0.295
'14:07.303',-0.445,0.310
'14:07.306',-0.405,0.325
'14:07.308',-0.380,0.335
'14:07.311',-0.325,0.360
'14:07.314',-0.285,0.380
'14:07.317',-0.240,0.385
'14:07.319',-0.210,0.390
'14:07.322',-0.170,0.375
'14:07.325',-0.145,0.370
'14:07.328',-0.115,0.355
'14:07.331',-0.080,0.370
'14:07.333',-0.020,0.360
'14:07.336',0.010,0.390
'14:07.339',0.050,0.385
'14:07.342',0.080,0.375
'14:07.344',0.120,0.365
'14:07.347',0.155,0.365
'14:07.350',0.190,0.370
'14:07.353',0.240,0.360
'14:07.356',0.280,0.350
'14:07.358',0.305,0.345
'14:07.361',0.320,0.340
'14:07.364',0.320,0.330
'14:07.367',0.335,0.305
'14:07.369',0.345,0.290
'14:07.372',0.355,0.280
'14:07.375',0.390,0.265
'14:07.378',0.415,0.260
'14:07.381',0.430,0.260
'14:07.383',0.435,0.260
'14:07.386',0.425,0.245
'14:07.389',0.410,0.235
'14:07.392',0.400,0.210
'14:07.394',0.385,0.185
'14:07.397',0.380,0.170
'14:07.400',0.375,0.150
'14:07.403',0.365,0.155
'14:07.406',0.350,0.150
'14:07.408',0.345,0.150
'14:07.411',0.315,0.150
'14:07.414',0.305,0.150
'14:07.417',0.280,0.140
'14:07.419',0.265,0.125
'14:07.422',0.250,0.125
'14:07.425',0.235,0.110
'14:07.428',0.210,0.115
'14:07.431',0.165,0.120
'14:07.433',0.145,0.125
'14:07.436',0.105,0.130
'14:07.439',0.085,0.130
'14:07.442',0.070,0.130
'14:07.444',0.060,0.135
'14:07.447',0.055,0.160
'14:07.450',0.045,0.165
'14:07.453',0.015,0.170
'14:07.456',-0.010,0.180
'14:07.458',-0.040,0.185
'14:07.461',-0.070,0.175
'14:07.464',-0.085,0.175
'14:07.467',-0.105,0.160
'14:07.469',-0.130,0.170
'14:07.472',-0.135,0.185
'14:07.475',-0.145,0.200
'14:07.478',-0.150,0.210
'14:07.481',-0.170,0.240
'14:07.483',-0.180,0.255
'14:07.486',-0.185,0.275
'14:07.489',-0.180,0.295
'14:07.492',-0.190,0.305
'14:07.494',-0.195,0.335
'14:07.497',-0.190,0.340
'14:07.500',-0.210,0.370
'14:07.503',-0.220,0.395
'14:07.506',-0.225,0.415
'14:07.508',-0.220,0.395
'14:07.511',-0.215,0.400
'14:07.514',-0.180,0.375
'14:07.517',-0.135,0.340
'14:07.519',-0.105,0.310
'14:07.522',-0.085,0.280
'14:07.525',-0.060,0.240
'14:07.528',-0.035,0.220
'14:07.531',-0.025,0.180
'14:07.533',-0.020,0.145
'14:07.536',-0.005,0.100
'14:07.539',0.030,0.090
'14:07.542',0.040,0.085
'14:07.544',0.065,0.085
'14:07.547',0.075,0.110
'14:07.550',0.075,0.120
'14:07.553',0.070,0.110
'14:07.556',0.070,0.100
'14:07.558',0.050,0.060
'14:07.561',0.005,0.045
'14:07.564',-0.050,0.000
'14:07.567',-0.120,-0.005
'14:07.569',-0.195,0.005
'14:07.572',-0.245,0.015
'14:07.575',-0.275,0.010
'14:07.578',-0.300,0.005
'14:07.581',-0.295,0.010
'14:07.583',-0.290,-0.010
'14:07.586',-0.265,-0.010
'14:07.589',-0.255,-0.010
'14:07.592',-0.250,-0.010
'14:07.594',-0.265,-0.010
'14:07.597',-0.270,-0.010
'14:07.600',-0.270,-0.010
'14:07.603',-0.275,-0.015
'14:07.606',-0.275,-0.025
'14:07.608',-0.260,-0.035
'14:07.611',-0.270,-0.035
'14:07.614',-0.275,-0.045
'14:07.617',-0.260,-0.030
'14:07.619',-0.265,-0.035
'14:07.622',-0.270,-0.035
'14:07.625',-0.270,-0.040
'14:07.628',-0.265,-0.040
'14:07.631',-0.270,-0.045
'14:07.633',-0.280,-0.030
'14:07.636',-0.270,0.000
'14:07.639',-0.285,0.040
'14:07.642',-0.310,0.100
'14:07.644',-0.325,0.150
'14:07.647',-0.350,0.180
'14:07.650',-0.350,0.140
'14:07.653',-0.315,0.035
'14:07.656',-0.255,-0.125
'14:07.658',-0.155,-0.375
'14:07.661',0.000,-0.710
'14:07.664',0.195,-1.100
'14:07.667',0.485,-1.480
'14:07.669',0.840,-1.775
'14:07.672',1.260,-2.000
'14:07.675',1.705,-2.120
'14:07.678',2.105,-2.165
'14:07.681',2.400,-2.155
'14:07.683',2.495,-2.115
'14:07.686',2.390,-2.070
'14:07.689',2.105,-2.035
'14:07.692',1.715,-2.005
'14:07.694',1.280,-1.950
'14:07.697',0.835,-1.850
'14:07.700',0.415,-1.620
'14:07.703',0.055,-1.260
'14:07.706',-0.235,-0.865
'14:07.708',-0.455,-0.530
'14:07.711',-0.630,-0.310
'14:07.714',-0.740,-0.200
'14:07.717',-0.750,-0.175
'14:07.719',-0.675,-0.200
'14:07.722',-0.550,-0.220
'14:07.725',-0.455,-0.235
'14:07.728',-0.380,-0.235
'14:07.731',-0.350,-0.225
'14:07.733',-0.355,-0.195
'14:07.736',-0.390,-0.165
'14:07.739',-0.400,-0.170
'14:07.742',-0.410,-0.155
'14:07.744',-0.420,-0.140
'14:07.747',-0.405,-0.130
'14:07.750',-0.385,-0.120
'14:07.753',-0.380,-0.115
'14:07.756',-0.395,-0.105
'14:07.758',-0.415,-0.115
'14:07.761',-0.440,-0.100
'14:07.764',-0.465,-0.095
'14:07.767',-0.465,-0.070
'14:07.769',-0.470,-0.065
'14:07.772',-0.450,-0.045
'14:07.775',-0.445,-0.040
'14:07.778',-0.435,-0.035
'14:07.781',-0.445,-0.015
'14:07.783',-0.465,0.000
'14:07.786',-0.460,0.005
'14:07.789',-0.465,0.010
'14:07.792',-0.465,0.025
'14:07.794',-0.465,0.030
'14:07.797',-0.470,0.025
'14:07.800',-0.465,0.020
'14:07.803',-0.475,0.020
'14:07.806',-0.465,0.045
'14:07.808',-0.470,0.055
'14:07.811',-0.450,0.075
'14:07.814',-0.420,0.115
'14:07.817',-0.390,0.140
'14:07.819',-0.365,0.150
'14:07.822',-0.340,0.160
'14:07.825',-0.320,0.155
'14:07.828',-0.315,0.165
'14:07.831',-0.300,0.165
'14:07.833',-0.295,0.185
'14:07.836',-0.275,0.210
'14:07.839',-0.240,0.245
'14:07.842',-0.205,0.270
'14:07.844',-0.165,0.265
'14:07.847',-0.135,0.280
'14:07.850',-0.110,0.300
'14:07.853',-0.085,0.295
'14:07.856',-0.055,0.310
'14:07.858',-0.035,0.345
'14:07.861',-0.015,0.355
'14:07.864',0.025,0.360
'14:07.867',0.055,0.370
'14:07.869',0.100,0.370
'14:07.872',0.130,0.370
'14:07.875',0.150,0.380
'14:07.878',0.185,0.395
'14:07.881',0.220,0.420
'14:07.883',0.280,0.415
'14:07.886',0.330,0.425
'14:07.889',0.370,0.435
'14:07.892',0.410,0.415
'14:07.894',0.415,0.400
'14:07.897',0.420,0.380
'14:07.900',0.430,0.375
'14:07.903',0.450,0.370
'14:07.906',0.485,0.365
'14:07.908',0.530,0.360
'14:07.911',0.580,0.355
'14:07.914',0.595,0.350
'14:07.917',0.610,0.325
'14:07.919',0.610,0.295
'14:07.922',0.610,0.280
'14:07.925',0.630,0.265
'14:07.928',0.645,0.255
'14:07.931',0.665,0.230
'14:07.933',0.670,0.230
'14:07.936',0.680,0.215
'14:07.939',0.670,0.205
'14:07.942',0.660,0.190
'14:07.944',0.650,0.175
'14:07.947',0.630,0.165
'14:07.950',0.620,0.150
'14:07.953',0.615,0.135
'14:07.956',0.605,0.130
'14:07.958',0.595,0.120
'14:07.961',0.575,0.105
'14:07.964',0.545,0.090
'14:07.967',0.500,0.070
'14:07.969',0.465,0.065
'14:07.972',0.450,0.040
'14:07.975',0.435,0.050
'14:07.978',0.425,0.060
'14:07.981',0.420,0.065
'14:07.983',0.410,0.070
'14:07.986',0.390,0.065
'14:07.989',0.360,0.055
'14:07.992',0.330,0.055
'14:07.994',0.295,0.050
'14:07.997',0.265,0.030
'14:08.000',0.250,0.040
'14:08.003',0.220,0.070
'14:08.006',0.200,0.080
'14:08.008',0.185,0.095
'14:08.011',0.165,0.115
'14:08.014',0.145,0.125
'14:08.017',0.105,0.120
'14:08.019',0.075,0.115
'14:08.022',0.055,0.120
'14:08.025',0.035,0.120
'14:08.028',0.010,0.115
'14:08.031',-0.015,0.125
'14:08.033',-0.045,0.135
'14:08.036',-0.070,0.155
'14:08.039',-0.095,0.145
'14:08.042',-0.110,0.145
'14:08.044',-0.135,0.150
'14:08.047',-0.125,0.145
'14:08.050',-0.130,0.160
'14:08.053',-0.125,0.155
'14:08.056',-0.130,0.170
'14:08.058',-0.140,0.155
'14:08.061',-0.155,0.160
'14:08.064',-0.170,0.150
'14:08.067',-0.175,0.160
'14:08.069',-0.190,0.180
'14:08.072',-0.180,0.190
'14:08.075',-0.155,0.215
'14:08.078',-0.130,0.240
'14:08.081',-0.115,0.285
'14:08.083',-0.100,0.330
'14:08.086',-0.100,0.335
'14:08.089',-0.120,0.350
'14:08.092',-0.120,0.340
'14:08.094',-0.110,0.305
'14:08.097',-0.100,0.285
'14:08.100',-0.065,0.250
'14:08.103',-0.030,0.250
'14:08.106',0.000,0.230
'14:08.108',0.025,0.225
'14:08.111',0.055,0.205
'14:08.114',0.070,0.175
'14:08.117',0.110,0.130
'14:08.119',0.125,0.090
'14:08.122',0.150,0.085
'14:08.125',0.175,0.055
'14:08.128',0.195,0.050
'14:08.131',0.175,0.055
'14:08.133',0.155,0.045
'14:08.136',0.145,0.040
'14:08.139',0.135,0.035
'14:08.142',0.125,0.015
'14:08.144',0.095,-0.005
'14:08.147',0.060,-0.015
'14:08.150',0.005,-0.020
'14:08.153',-0.035,-0.035
'14:08.156',-0.095,-0.030
'14:08.158',-0.140,-0.035
'14:08.161',-0.170,-0.055
'14:08.164',-0.185,-0.060
'14:08.167',-0.195,-0.065
'14:08.169',-0.205,-0.070
'14:08.172',-0.205,-0.080
'14:08.175',-0.210,-0.085
'14:08.178',-0.210,-0.080
'14:08.181',-0.210,-0.090
'14:08.183',-0.210,-0.090
'14:08.186',-0.210,-0.090
'14:08.189',-0.190,-0.095
'14:08.192',-0.180,-0.105
'14:08.194',-0.185,-0.105
'14:08.197',-0.185,-0.100
'14:08.200',-0.195,-0.105
'14:08.203',-0.205,-0.105
'14:08.206',-0.215,-0.110
'14:08.208',-0.200,-0.085
'14:08.211',-0.205,-0.085
'14:08.214',-0.180,-0.065
'14:08.217',-0.170,-0.035
'14:08.219',-0.160,-0.015
'14:08.222',-0.175,0.040
'14:08.225',-0.195,0.100
'14:08.228',-0.225,0.155
'14:08.231',-0.270,0.160
'14:08.233',-0.285,0.095
'14:08.236',-0.260,-0.040
'14:08.239',-0.195,-0.270
'14:08.242',-0.080,-0.560
'14:08.244',0.110,-0.910
'14:08.247',0.335,-1.255
'14:08.250',0.645,-1.540
'14:08.253',0.995,-1.760
'14:08.256',1.385,-1.860
'14:08.258',1.780,-1.915
'14:08.261',2.140,-1.910
'14:08.264',2.375,-1.895
'14:08.267',2.430,-1.855
'14:08.269',2.300,-1.810
'14:08.272',2.030,-1.740
'14:08.275',1.660,-1.655
'14:08.278',1.245,-1.595
'14:08.281',0.835,-1.510
'14:08.283',0.440,-1.350
'14:08.286',0.100,-1.135
'14:08.289',-0.205,-0.890
'14:08.292',-0.480,-0.685
'14:08.294',-0.730,-0.530
'14:08.297',-0.900,-0.440
'14:08.300',-0.960,-0.370
'14:08.303',-0.940,-0.310
'14:08.306',-0.840,-0.270
'14:08.308',-0.700,-0.240
'14:08.311',-0.565,-0.205
'14:08.314',-0.475,-0.170
'14:08.317',-0.415,-0.160
'14:08.319',-0.420,-0.140
'14:08.322',-0.450,-0.135
'14:08.325',-0.490,-0.115
'14:08.328',-0.530,-0.110
'14:08.331',-0.530,-0.100
'14:08.333',-0.530,-0.110
'14:08.336',-0.535,-0.110
'14:08.339',-0.545,-0.095
'14:08.342',-0.530,-0.085
'14:08.344',-0.530,-0.070
'14:08.347',-0.530,-0.040
'14:08.350',-0.520,-0.025
'14:08.353',-0.515,-0.025
'14:08.356',-0.515,-0.030
'14:08.358',-0.525,-0.030
'14:08.361',-0.550,-0.040
'14:08.364',-0.565,-0.045
'14:08.367',-0.580,-0.025
'14:08.369',-0.580,-0.005
'14:08.372',-0.570,0.010
'14:08.375',-0.555,0.020
'14:08.378',-0.530,0.015
'14:08.381',-0.520,0.035
'14:08.383',-0.500,0.045
'14:08.386',-0.505,0.045
'14:08.389',-0.515,0.065
'14:08.392',-0.520,0.075
'14:08.394',-0.505,0.080
'14:08.397',-0.485,0.090
'14:08.400',-0.465,0.100
'14:08.403',-0.455,0.090
'14:08.406',-0.445,0.105
'14:08.408',-0.425,0.115
'14:08.411',-0.405,0.140
'14:08.414',-0.390,0.170
'14:08.417',-0.360,0.185
'14:08.419',-0.335,0.200
'14:08.422',-0.305,0.225
'14:08.425',-0.300,0.230
'14:08.428',-0.295,0.230
'14:08.431',-0.295,0.235
'14:08.433',-0.300,0.240
'14:08.436',-0.280,0.250
'14:08.439',-0.240,0.260
'14:08.442',-0.200,0.285
'14:08.444',-0.150,0.305
'14:08.447',-0.110,0.310
'14:08.450',-0.080,0.315
'14:08.453',-0.065,0.320
'14:08.456',-0.040,0.320
'14:08.458',-0.015,0.315
'14:08.461',0.020,0.305
'14:08.464',0.050,0.300
'14:08.467',0.095,0.295
'14:08.469',0.120,0.300
'14:08.472',0.155,0.285
'14:08.475',0.180,0.285
'14:08.478',0.200,0.275
'14:08.481',0.245,0.285
'14:08.483',0.275,0.275
'14:08.486',0.335,0.265
'14:08.489',0.390,0.260
'14:08.492',0.440,0.250
'14:08.494',0.470,0.245
'14:08.497',0.510,0.250
'14:08.500',0.540,0.260
'14:08.503',0.575,0.275
'14:08.506',0.620,0.285
'14:08.508',0.650,0.295
'14:08.511',0.675,0.310
'14:08.514',0.670,0.315
'14:08.517',0.655,0.310
'14:08.519',0.645,0.290
'14:08.522',0.605,0.275
'14:08.525',0.575,0.235
'14:08.528',0.535,0.215
'14:08.531',0.500,0.205
'14:08.533',0.465,0.195
'14:08.536',0.420,0.205
'14:08.539',0.380,0.220
'14:08.542',0.340,0.225
'14:08.544',0.300,0.255
'14:08.547',0.285,0.295
'14:08.550',0.270,0.315
'14:08.553',0.250,0.320
'14:08.556',0.225,0.315
'14:08.558',0.205,0.290
'14:08.561',0.175,0.260
'14:08.564',0.165,0.225
'14:08.567',0.145,0.175
'14:08.569',0.130,0.150
'14:08.572',0.115,0.140
'14:08.575',0.105,0.130
'14:08.578',0.090,0.145
'14:08.581',0.040,0.135
'14:08.583',0.020,0.120
'14:08.586',-0.020,0.100
'14:08.589',-0.055,0.080
'14:08.592',-0.075,0.050
'14:08.594',-0.095,0.045
'14:08.597',-0.110,0.035
'14:08.600',-0.145,0.030
'14:08.603',-0.175,0.035
'14:08.606',-0.190,0.035
'14:08.608',-0.210,0.030
'14:08.611',-0.215,0.025
'14:08.614',-0.210,0.035
'14:08.617',-0.205,0.035
'14:08.619',-0.195,0.030
'14:08.622',-0.175,0.030
'14:08.625',-0.190,0.015
'14:08.628',-0.205,0.010
'14:08.631',-0.195,-0.010
'14:08.633',-0.190,-0.025
'14:08.636',-0.190,-0.005
'14:08.639',-0.180,0.015
'14:08.642',-0.170,0.030
'14:08.644',-0.175,0.070
'14:08.647',-0.185,0.095
'14:08.650',-0.200,0.085
'14:08.653',-0.200,0.010
'14:08.656',-0.195,-0.120
'14:08.658',-0.130,-0.340
'14:08.661',-0.020,-0.605
'14:08.664',0.140,-0.895
'14:08.667',0.375,-1.155
'14:08.669',0.680,-1.350
'14:08.672',1.080,-1.495
'14:08.675',1.525,-1.615
'14:08.678',1.980,-1.690
'14:08.681',2.375,-1.730
'14:08.683',2.650,-1.770
'14:08.686',2.735,-1.790
'14:08.689',2.640,-1.795
'14:08.692',2.385,-1.810
'14:08.694',2.055,-1.810
'14:08.697',1.695,-1.785
'14:08.700',1.325,-1.685
'14:08.703',0.945,-1.485
'14:08.706',0.575,-1.190
'14:08.708',0.205,-0.865
'14:08.711',-0.135,-0.605
'14:08.714',-0.415,-0.415
'14:08.717',-0.620,-0.305
'14:08.719',-0.695,-0.240
'14:08.722',-0.660,-0.240
'14:08.725',-0.550,-0.245
'14:08.728',-0.435,-0.270
'14:08.731',-0.345,-0.260
'14:08.733',-0.320,-0.250
'14:08.736',-0.340,-0.220
'14:08.739',-0.385,-0.190
'14:08.742',-0.445,-0.170
'14:08.744',-0.475,-0.160
'14:08.747',-0.495,-0.155
'14:08.750',-0.485,-0.140
'14:08.753',-0.485,-0.135
'14:08.756',-0.485,-0.130
'14:08.758',-0.490,-0.110
'14:08.761',-0.495,-0.100
'14:08.764',-0.530,-0.080
'14:08.767',-0.560,-0.080
'14:08.769',-0.580,-0.070
'14:08.772',-0.600,-0.075
'14:08.775',-0.610,-0.050
'14:08.778',-0.600,-0.025
'14:08.781',-0.600,0.000
'14:08.783',-0.605,0.025
'14:08.786',-0.615,0.050
'14:08.789',-0.630,0.065
'14:08.792',-0.645,0.060
'14:08.794',-0.655,0.060
'14:08.797',-0.650,0.055
'14:08.800',-0.655,0.065
'14:08.803',-0.665,0.085
'14:08.806',-0.675,0.105
'14:08.808',-0.665,0.140
'14:08.811',-0.665,0.175
'14:08.814',-0.650,0.195
'14:08.817',-0.655,0.210
'14:08.819',-0.640,0.200
'14:08.822',-0.610,0.220
'14:08.825',-0.590,0.220
'14:08.828',-0.595,0.225
'14:08.831',-0.600,0.240
'14:08.833',-0.585,0.260
'14:08.836',-0.580,0.275
'14:08.839',-0.550,0.270
'14:08.842',-0.510,0.265
'14:08.844',-0.470,0.275
'14:08.847',-0.430,0.295
'14:08.850',-0.385,0.305
'14:08.853',-0.360,0.315
'14:08.856',-0.340,0.315
'14:08.858',-0.310,0.295
'14:08.861',-0.265,0.300
'14:08.864',-0.240,0.285
'14:08.867',-0.200,0.260
'14:08.869',-0.170,0.255
'14:08.872',-0.140,0.240
'14:08.875',-0.110,0.245
'14:08.878',-0.075,0.240
'14:08.881',-0.030,0.225
'14:08.883',0.025,0.195
'14:08.886',0.095,0.165
'14:08.889',0.140,0.140
'14:08.892',0.185,0.115
'14:08.894',0.215,0.095
'14:08.897',0.235,0.085
'14:08.900',0.260,0.065
'14:08.903',0.280,0.060
'14:08.906',0.295,0.040
'14:08.908',0.320,0.025
'14:08.911',0.340,0.025
'14:08.914',0.345,0.025
'14:08.917',0.350,0.035
'14:08.919',0.340,0.020
'14:08.922',0.350,0.025
'14:08.925',0.350,0.020
'14:08.928',0.335,0.015
'14:08.931',0.345,-0.005
'14:08.933',0.325,-0.020
'14:08.936',0.310,-0.030
'14:08.939',0.280,-0.025
'14:08.942',0.250,-0.015
'14:08.944',0.230,-0.005
'14:08.947',0.235,0.015
'14:08.950',0.225,0.020
'14:08.953',0.215,0.015
'14:08.956',0.190,0.025
'14:08.958',0.155,0.015
'14:08.961',0.120,0.015
'14:08.964',0.105,0.010
'14:08.967',0.060,0.030
'14:08.969',0.045,0.060
'14:08.972',0.055,0.075
'14:08.975',0.045,0.080
'14:08.978',0.035,0.085
'14:08.981',0.020,0.090
'14:08.983',0.005,0.095
'14:08.986',-0.015,0.095
'14:08.989',-0.050,0.115
'14:08.992',-0.070,0.110
'14:08.994',-0.090,0.120
'14:08.997',-0.085,0.125
'14:09.000',-0.100,0.115
'14:09.003',-0.120,0.125
'14:09.006',-0.145,0.125
'14:09.008',-0.160,0.135
'14:09.011',-0.185,0.155
'14:09.014',-0.185,0.160
'14:09.017',-0.180,0.170
'14:09.019',-0.170,0.175
'14:09.022',-0.175,0.165
'14:09.025',-0.185,0.155
'14:09.028',-0.210,0.145
'14:09.031',-0.200,0.130
'14:09.033',-0.210,0.115
'14:09.036',-0.225,0.105
'14:09.039',-0.215,0.100
'14:09.042',-0.205,0.110
'14:09.044',-0.195,0.100
'14:09.047',-0.175,0.115
'14:09.050',-0.170,0.105
'14:09.053',-0.175,0.095
'14:09.056',-0.180,0.080
'14:09.058',-0.185,0.070
'14:09.061',-0.185,0.065
'14:09.064',-0.170,0.060
'14:09.067',-0.160,0.060
'14:09.069',-0.165,0.055
'14:09.072',-0.150,0.055
'14:09.075',-0.155,0.050
'14:09.078',-0.155,0.040
'14:09.081',-0.165,0.050
'14:09.083',-0.145,0.060
'14:09.086',-0.135,0.060
'14:09.089',-0.135,0.050
'14:09.092',-0.120,0.055
'14:09.094',-0.125,0.045
'14:09.097',-0.135,0.030
'14:09.100',-0.130,0.015
'14:09.103',-0.150,0.015
'14:09.106',-0.165,0.010
'14:09.108',-0.145,0.020
'14:09.111',-0.140,0.030
'14:09.114',-0.120,0.035
'14:09.117',-0.100,0.050
'14:09.119',-0.095,0.035
'14:09.122',-0.090,0.025
'14:09.125',-0.105,0.015
'14:09.128',-0.125,0.005
'14:09.131',-0.135,0.000
'14:09.133',-0.140,-0.010
'14:09.136',-0.135,0.010
'14:09.139',-0.135,0.025
'14:09.142',-0.110,0.035
'14:09.144',-0.105,0.040
'14:09.147',-0.100,0.050
'14:09.150',-0.095,0.050
'14:09.153',-0.095,0.050
'14:09.156',-0.095,0.075
'14:09.158',-0.085,0.085
'14:09.161',-0.080,0.115
'14:09.164',-0.080,0.140
'14:09.167',-0.075,0.155
'14:09.169',-0.080,0.215
'14:09.172',-0.095,0.240
'14:09.175',-0.095,0.280
'14:09.178',-0.095,0.325
'14:09.181',-0.080,0.335
'14:09.183',-0.075,0.345
'14:09.186',-0.050,0.300
'14:09.189',-0.030,0.280
'14:09.192',0.005,0.220
'14:09.194',0.020,0.170
'14:09.197',0.045,0.115
'14:09.200',0.060,0.090
'14:09.203',0.075,0.095
'14:09.206',0.095,0.100
'14:09.208',0.115,0.110
'14:09.211',0.125,0.110
'14:09.214',0.135,0.100
'14:09.217',0.145,0.085
'14:09.219',0.130,0.055
'14:09.222',0.115,0.045
'14:09.225',0.105,0.040
'14:09.228',0.095,0.020
'14:09.231',0.085,0.010
'14:09.233',0.080,0.000
'14:09.236',0.055,0.000
'14:09.239',0.015,-0.005
'14:09.242',-0.035,-0.005
'14:09.244',-0.075,-0.010
'14:09.247',-0.120,-0.025
'14:09.250',-0.150,-0.025
'14:09.253',-0.160,-0.035
'14:09.256',-0.160,-0.030
'14:09.258',-0.165,-0.040
'14:09.261',-0.180,-0.045
'14:09.264',-0.170,-0.030
'14:09.267',-0.185,-0.035
'14:09.269',-0.190,-0.050
'14:09.272',-0.200,-0.040
'14:09.275',-0.200,-0.025
'14:09.278',-0.190,-0.030
'14:09.281',-0.175,-0.035
'14:09.283',-0.160,-0.020
'14:09.286',-0.155,-0.025
'14:09.289',-0.160,-0.015
'14:09.292',-0.175,-0.015
'14:09.294',-0.190,-0.035
'14:09.297',-0.190,-0.045
'14:09.300',-0.195,-0.050
'14:09.303',-0.185,-0.065
'14:09.306',-0.180,-0.040
'14:09.308',-0.165,-0.025
'14:09.311',-0.170,0.015
'14:09.314',-0.185,0.055
'14:09.317',-0.195,0.105
'14:09.319',-0.215,0.160
'14:09.322',-0.220,0.170
'14:09.325',-0.235,0.140
'14:09.328',-0.245,0.040
'14:09.331',-0.220,-0.155
'14:09.333',-0.140,-0.450
'14:09.336',0.035,-0.795
'14:09.339',0.275,-1.150
'14:09.342',0.605,-1.450
'14:09.344',0.985,-1.680
'14:09.347',1.390,-1.835
'14:09.350',1.820,-1.930
'14:09.353',2.190,-1.965
'14:09.356',2.490,-1.975
'14:09.358',2.615,-1.950
'14:09.361',2.570,-1.930
'14:09.364',2.355,-1.885
'14:09.367',2.030,-1.820
'14:09.369',1.635,-1.735
'14:09.372',1.175,-1.555
'14:09.375',0.720,-1.265
'14:09.378',0.300,-0.910
'14:09.381',-0.110,-0.595
'14:09.383',-0.450,-0.360
'14:09.386',-0.695,-0.230
'14:09.389',-0.765,-0.160
'14:09.392',-0.735,-0.170
'14:09.394',-0.620,-0.185
'14:09.397',-0.485,-0.185
'14:09.400',-0.375,-0.190
'14:09.403',-0.335,-0.165
'14:09.406',-0.330,-0.130
'14:09.408',-0.365,-0.100
'14:09.411',-0.405,-0.090
'14:09.414',-0.430,-0.080
'14:09.417',-0.465,-0.055
'14:09.419',-0.460,-0.050
'14:09.422',-0.450,-0.045
'14:09.425',-0.465,-0.055
'14:09.428',-0.470,-0.045
'14:09.431',-0.485,-0.050
'14:09.433',-0.495,-0.040
'14:09.436',-0.490,-0.030
'14:09.439',-0.505,-0.015
'14:09.442',-0.495,0.005
'14:09.444',-0.515,0.005
'14:09.447',-0.515,0.025
'14:09.450',-0.525,0.045
'14:09.453',-0.525,0.050
'14:09.456',-0.525,0.050
'14:09.458',-0.530,0.055
'14:09.461',-0.530,0.050
'14:09.464',-0.535,0.060
'14:09.467',-0.540,0.060
'14:09.469',-0.560,0.070
'14:09.472',-0.560,0.100
'14:09.475',-0.550,0.115
'14:09.478',-0.550,0.130
'14:09.481',-0.520,0.135
'14:09.483',-0.505,0.145
'14:09.486',-0.485,0.155
'14:09.489',-0.480,0.170
'14:09.492',-0.470,0.185
'14:09.494',-0.480,0.185
'14:09.497',-0.475,0.195
'14:09.500',-0.465,0.200
'14:09.503',-0.460,0.215
'14:09.506',-0.435,0.220
'14:09.508',-0.415,0.230
'14:09.511',-0.390,0.245
'14:09.514',-0.380,0.260
'14:09.517',-0.355,0.280
'14:09.519',-0.335,0.290
'14:09.522',-0.305,0.310
'14:09.525',-0.290,0.320
'14:09.528',-0.260,0.335
'14:09.531',-0.240,0.335
'14:09.533',-0.225,0.340
'14:09.536',-0.215,0.350
'14:09.539',-0.210,0.370
'14:09.542',-0.175,0.380
'14:09.544',-0.150,0.420
'14:09.547',-0.105,0.435
'14:09.550',-0.060,0.460
'14:09.553',-0.010,0.470
'14:09.556',0.010,0.475
'14:09.558',0.040,0.475
'14:09.561',0.060,0.480
'14:09.564',0.085,0.480
'14:09.567',0.115,0.465
'14:09.569',0.150,0.475
'14:09.572',0.170,0.480
'14:09.575',0.205,0.485
'14:09.578',0.225,0.490
'14:09.581',0.260,0.485
'14:09.583',0.300,0.500
'14:09.586',0.315,0.505
'14:09.589',0.355,0.500
'14:09.592',0.395,0.490
'14:09.594',0.415,0.480
'14:09.597',0.445,0.460
'14:09.600',0.460,0.440
'14:09.603',0.470,0.410
'14:09.606',0.485,0.390
'14:09.608',0.510,0.385
'14:09.611',0.550,0.385
'14:09.614',0.580,0.365
'14:09.617',0.605,0.350
'14:09.619',0.605,0.330
'14:09.622',0.630,0.305
'14:09.625',0.630,0.275
'14:09.628',0.625,0.245
'14:09.631',0.615,0.245
'14:09.633',0.625,0.235
'14:09.636',0.620,0.215
'14:09.639',0.620,0.205
'14:09.642',0.615,0.185
'14:09.644',0.615,0.185
'14:09.647',0.580,0.165
'14:09.650',0.565,0.175
'14:09.653',0.545,0.165
'14:09.656',0.535,0.165
'14:09.658',0.505,0.170
'14:09.661',0.475,0.165
'14:09.664',0.440,0.160
'14:09.667',0.395,0.140
'14:09.669',0.370,0.130
'14:09.672',0.325,0.135
'14:09.675',0.305,0.155
'14:09.678',0.290,0.170
'14:09.681',0.280,0.190
'14:09.683',0.270,0.205
'14:09.686',0.255,0.195
'14:09.689',0.225,0.195
'14:09.692',0.190,0.180
'14:09.694',0.140,0.185
'14:09.697',0.125,0.180
'14:09.700',0.095,0.175
'14:09.703',0.095,0.190
'14:09.706',0.075,0.190
'14:09.708',0.070,0.205
'14:09.711',0.050,0.205
'14:09.714',0.045,0.220
'14:09.717',0.045,0.230
'14:09.719',0.045,0.235
'14:09.722',0.050,0.275
'14:09.725',0.075,0.295
'14:09.728',0.065,0.320
'14:09.731',0.065,0.345
'14:09.733',0.060,0.350
'14:09.736',0.040,0.375
'14:09.739',0.040,0.370
'14:09.742',0.065,0.365
'14:09.744',0.095,0.345
'14:09.747',0.130,0.305
'14:09.750',0.175,0.275
'14:09.753',0.200,0.220
'14:09.756',0.205,0.175
'14:09.758',0.215,0.140
'14:09.761',0.200,0.110
'14:09.764',0.215,0.105
'14:09.767',0.220,0.090
'14:09.769',0.235,0.095
'14:09.772',0.260,0.085
'14:09.775',0.280,0.105
'14:09.778',0.285,0.105
'14:09.781',0.295,0.115
'14:09.783',0.290,0.135
'14:09.786',0.270,0.150
'14:09.789',0.235,0.175
'14:09.792',0.185,0.225
'14:09.794',0.115,0.305
'14:09.797',0.070,0.390
'14:09.800',0.025,0.490
'14:09.803',-0.010,0.565
'14:09.806',-0.040,0.610
'14:09.808',-0.065,0.545
'14:09.811',-0.065,0.335
'14:09.814',-0.045,0.005
'14:09.817',-0.005,-0.440
'14:09.819',0.045,-0.950
'14:09.822',0.115,-1.465
'14:09.825',0.260,-1.890
'14:09.828',0.410,-2.240
'14:09.831',0.610,-2.495
'14:09.833',0.830,-2.700
'14:09.836',1.065,-2.865
'14:09.839',1.335,-2.960
'14:09.842',1.615,-3.015
'14:09.844',1.870,-3.045
'14:09.847',2.110,-3.065
'14:09.850',2.310,-3.060
'14:09.853',2.465,-3.065
'14:09.856',2.600,-3.065
'14:09.858',2.705,-3.065
'14:09.861',2.780,-3.050
'14:09.864',2.850,-3.010
'14:09.867',2.880,-2.955
'14:09.869',2.890,-2.875
'14:09.872',2.865,-2.810
'14:09.875',2.820,-2.710
'14:09.878',2.755,-2.645
'14:09.881',2.700,-2.575
'14:09.883',2.670,-2.495
'14:09.886',2.650,-2.420
'14:09.889',2.635,-2.315
'14:09.892',2.625,-2.210
'14:09.894',2.590,-2.100
'14:09.897',2.545,-1.975
'14:09.900',2.435,-1.820
'14:09.903',2.275,-1.640
'14:09.906',2.090,-1.415
'14:09.908',1.855,-1.200
'14:09.911',1.580,-0.970
'14:09.914',1.245,-0.735
'14:09.917',0.920,-0.480
'14:09.919',0.580,-0.200
'14:09.922',0.265,0.095
'14:09.925',-0.050,0.320
'14:09.928',-0.320,0.480
'14:09.931',-0.555,0.560
'14:09.933',-0.690,0.605
'14:09.936',-0.750,0.640
'14:09.939',-0.740,0.665
'14:09.942',-0.730,0.715
'14:09.944',-0.685,0.780
'14:09.947',-0.685,0.845
'14:09.950',-0.710,0.910
'14:09.953',-0.745,0.980
'14:09.956',-0.795,1.025
'14:09.958',-0.835,1.075
'14:09.961',-0.860,1.120
'14:09.964',-0.890,1.160
'14:09.967',-0.915,1.200
'14:09.969',-0.940,1.255
'14:09.972',-0.960,1.315
'14:09.975',-0.995,1.375
'14:09.978',-1.000,1.430
'14:09.981',-1.025,1.475
'14:09.983',-1.030,1.525
'14:09.986',-1.035,1.575
'14:09.989',-1.055,1.645
'14:09.992',-1.080,1.680
'14:09.994',-1.100,1.735
'14:09.997',-1.135,1.785
'14:10.000',-1.155,1.825
'14:10.003',-1.175,1.870
'14:10.006',-1.165,1.920
'14:10.008',-1.175,1.965
'14:10.011',-1.180,2.020
'14:10.014',-1.200,2.070
'14:10.017',-1.200,2.110
'14:10.019',-1.205,2.150
'14:10.022',-1.220,2.160
'14:10.025',-1.235,2.175
'14:10.028',-1.225,2.185
'14:10.031',-1.225,2.195
'14:10.033',-1.215,2.185
'14:10.036',-1.215,2.200
'14:10.039',-1.220,2.215
'14:10.042',-1.215,2.235
'14:10.044',-1.195,2.250
'14:10.047',-1.185,2.265
'14:10.050',-1.170,2.270
'14:10.053',-1.130,2.260
'14:10.056',-1.105,2.255
'14:10.058',-1.080,2.235
'14:10.061',-1.075,2.210
'14:10.064',-1.045,2.195
'14:10.067',-1.030,2.180
'14:10.069',-1.005,2.145
'14:10.072',-0.980,2.115
'14:10.075',-0.945,2.080
'14:10.078',-0.890,2.030
'14:10.081',-0.845,2.000
'14:10.083',-0.800,1.960
'14:10.086',-0.760,1.915
'14:10.089',-0.730,1.870
'14:10.092',-0.685,1.830
'14:10.094',-0.650,1.760
'14:10.097',-0.610,1.710
'14:10.100',-0.560,1.640
'14:10.103',-0.505,1.580
'14:10.106',-0.450,1.525
'14:10.108',-0.415,1.470
'14:10.111',-0.355,1.400
'14:10.114',-0.305,1.350
'14:10.117',-0.245,1.300
'14:10.119',-0.195,1.245
'14:10.122',-0.145,1.180
'14:10.125',-0.105,1.120
'14:10.128',-0.070,1.045
'14:10.131',-0.050,0.980
'14:10.133',-0.040,0.925
'14:10.136',-0.030,0.870
'14:10.139',-0.020,0.825
'14:10.142',0.005,0.770
'14:10.144',0.020,0.735
'14:10.147',0.055,0.685
'14:10.150',0.085,0.650
'14:10.153',0.085,0.620
'14:10.156',0.080,0.570
'14:10.158',0.075,0.545
'14:10.161',0.085,0.500
'14:10.164',0.095,0.445
'14:10.167',0.095,0.415
'14:10.169',0.085,0.380
'14:10.172',0.075,0.335
'14:10.175',0.045,0.315
'14:10.178',0.025,0.315
'14:10.181',0.005,0.310
'14:10.183',0.005,0.320
'14:10.186',0.025,0.295
'14:10.189',0.015,0.275
'14:10.192',0.025,0.255
'14:10.194',0.005,0.245
'14:10.197',-0.025,0.215
'14:10.200',-0.045,0.200
'14:10.203',-0.070,0.190
'14:10.206',-0.085,0.175
'14:10.208',-0.085,0.170
'14:10.211',-0.095,0.175
'14:10.214',-0.080,0.175
'14:10.217',-0.090,0.180
'14:10.219',-0.095,0.140
'14:10.222',-0.105,0.125
'14:10.225',-0.135,0.115
'14:10.228',-0.135,0.095
'14:10.231',-0.125,0.085
'14:10.233',-0.105,0.070
'14:10.236',-0.095,0.075
'14:10.239',-0.095,0.055
'14:10.242',-0.105,0.060
'14:10.244',-0.120,0.050
'14:10.247',-0.125,0.040
'14:10.250',-0.115,0.050
'14:10.253',-0.115,0.040
'14:10.256',-0.085,0.040
'14:10.258',-0.070,0.035
'14:10.261',-0.060,0.035
'14:10.264',-0.055,0.020
'14:10.267',-0.080,0.000
'14:10.269',-0.075,0.025
'14:10.272',-0.075,0.045
'14:10.275',-0.065,0.085
'14:10.278',-0.055,0.110
'14:10.281',-0.040,0.135
'14:10.283',-0.030,0.165
'14:10.286',-0.020,0.190
'14:10.289',-0.010,0.220
'14:10.292',-0.025,0.225
'14:10.294',-0.040,0.230
'14:10.297',-0.035,0.230
'14:10.300',-0.020,0.210
'14:10.303',0.005,0.180
'14:10.306',0.040,0.155
'14:10.308',0.075,0.135
'14:10.311',0.115,0.110
'14:10.314',0.145,0.075
'14:10.317',0.165,0.055
'14:10.319',0.190,0.040
'14:10.322',0.215,0.015
'14:10.325',0.225,0.000
'14:10.328',0.240,-0.005
'14:10.331',0.250,-0.035
'14:10.333',0.265,-0.040
'14:10.336',0.260,-0.050
'14:10.339',0.255,-0.075
'14:10.342',0.245,-0.080
'14:10.344',0.230,-0.080
'14:10.347',0.200,-0.075
'14:10.350',0.145,-0.070
'14:10.353',0.075,-0.085
'14:10.356',0.000,-0.105
'14:10.358',-0.080,-0.115
'14:10.361',-0.120,-0.140
'14:10.364',-0.125,-0.150
'14:10.367',-0.135,-0.145
'14:10.369',-0.115,-0.150
'14:10.372',-0.105,-0.145
'14:10.375',-0.100,-0.140
'14:10.378',-0.110,-0.150
'14:10.381',-0.115,-0.150
'14:10.383',-0.125,-0.155
'14:10.386',-0.115,-0.155
'14:10.389',-0.110,-0.155
'14:10.392',-0.095,-0.155
'14:10.394',-0.085,-0.140
'14:10.397',-0.085,-0.140
'14:10.400',-0.105,-0.155
'14:10.403',-0.105,-0.155
'14:10.406',-0.110,-0.165
'14:10.408',-0.105,-0.165
'14:10.411',-0.095,-0.150
'14:10.414',-0.085,-0.115
'14:10.417',-0.085,-0.080
'14:10.419',-0.090,-0.040
'14:10.422',-0.105,0.020
'14:10.425',-0.145,0.060
'14:10.428',-0.175,0.055
'14:10.431',-0.190,-0.035
'14:10.433',-0.180,-0.245
'14:10.436',-0.085,-0.560
'14:10.439',0.085,-0.960
'14:10.442',0.350,-1.345
'14:10.444',0.690,-1.665
'14:10.447',1.095,-1.860
'14:10.450',1.545,-1.985
'14:10.453',1.985,-2.030
'14:10.456',2.335,-2.005
'14:10.458',2.550,-1.980
'14:10.461',2.585,-1.905
'14:10.464',2.405,-1.820
'14:10.467',2.060,-1.735
'14:10.469',1.620,-1.635
'14:10.472',1.120,-1.490
'14:10.475',0.615,-1.270
'14:10.478',0.140,-1.040
'14:10.481',-0.255,-0.825
'14:10.483',-0.585,-0.650
'14:10.486',-0.795,-0.535
'14:10.489',-0.930,-0.450
'14:10.492',-0.930,-0.400
'14:10.494',-0.840,-0.380
'14:10.497',-0.705,-0.360
'14:10.500',-0.565,-0.345
'14:10.503',-0.455,-0.310
'14:10.506',-0.390,-0.265
'14:10.508',-0.360,-0.230
'14:10.511',-0.365,-0.195
'14:10.514',-0.395,-0.185
'14:10.517',-0.420,-0.180
'14:10.519',-0.430,-0.190
'14:10.522',-0.445,-0.175
'14:10.525',-0.440,-0.185
'14:10.528',-0.450,-0.180
'14:10.531',-0.460,-0.170
'14:10.533',-0.470,-0.160
'14:10.536',-0.480,-0.170
'14:10.539',-0.490,-0.155
'14:10.542',-0.480,-0.165
'14:10.544',-0.470,-0.145
'14:10.547',-0.470,-0.140
'14:10.550',-0.465,-0.130
'14:10.553',-0.470,-0.125
'14:10.556',-0.470,-0.100
'14:10.558',-0.475,-0.110
'14:10.561',-0.470,-0.120
'14:10.564',-0.470,-0.115
'14:10.567',-0.475,-0.115
'14:10.569',-0.480,-0.095
'14:10.572',-0.470,-0.075
'14:10.575',-0.465,-0.050
'14:10.578',-0.450,-0.025
'14:10.581',-0.415,-0.035
'14:10.583',-0.380,-0.025
'14:10.586',-0.360,-0.030
'14:10.589',-0.340,-0.020
'14:10.592',-0.335,-0.035
'14:10.594',-0.325,-0.015
'14:10.597',-0.330,-0.005
'14:10.600',-0.335,0.005
'14:10.603',-0.345,0.000
'14:10.606',-0.320,0.010
'14:10.608',-0.280,0.020
'14:10.611',-0.230,0.035
'14:10.614',-0.205,0.055
'14:10.617',-0.180,0.065
'14:10.619',-0.160,0.070
'14:10.622',-0.130,0.085
'14:10.625',-0.095,0.085
'14:10.628',-0.055,0.075
'14:10.631',-0.040,0.070
'14:10.633',-0.020,0.065
'14:10.636',0.010,0.065
'14:10.639',0.020,0.100
'14:10.642',0.045,0.105
'14:10.644',0.060,0.130
'14:10.647',0.095,0.135
'14:10.650',0.115,0.130
'14:10.653',0.160,0.120
'14:10.656',0.195,0.100
'14:10.658',0.230,0.075
'14:10.661',0.270,0.070
'14:10.664',0.300,0.055
'14:10.667',0.335,0.045
'14:10.669',0.370,0.045
'14:10.672',0.415,0.020
'14:10.675',0.450,0.025
'14:10.678',0.490,0.020
'14:10.681',0.515,0.010
'14:10.683',0.535,0.005
'14:10.686',0.550,0.000
'14:10.689',0.560,-0.020
'14:10.692',0.585,-0.030
'14:10.694',0.595,-0.055
'14:10.697',0.625,-0.090
'14:10.700',0.645,-0.100
'14:10.703',0.650,-0.120
'14:10.706',0.655,-0.115
'14:10.708',0.660,-0.110
'14:10.711',0.665,-0.120
'14:10.714',0.655,-0.110
'14:10.717',0.660,-0.120
'14:10.719',0.655,-0.120
'14:10.722',0.670,-0.130
'14:10.725',0.655,-0.145
'14:10.728',0.620,-0.145
'14:10.731',0.580,-0.130
'14:10.733',0.550,-0.130
'14:10.736',0.520,-0.130
'14:10.739',0.515,-0.120
'14:10.742',0.505,-0.125
'14:10.744',0.495,-0.115
'14:10.747',0.465,-0.100
'14:10.750',0.460,-0.100
'14:10.753',0.405,-0.075
'14:10.756',0.370,-0.060
'14:10.758',0.320,-0.055
'14:10.761',0.280,-0.040
'14:10.764',0.245,-0.040
'14:10.767',0.215,-0.040
'14:10.769',0.190,-0.030
'14:10.772',0.155,-0.015
'14:10.775',0.120,-0.010
'14:10.778',0.085,-0.005
'14:10.781',0.055,0.015
'14:10.783',0.030,0.045
'14:10.786',0.025,0.050
'14:10.789',0.020,0.065
'14:10.792',0.010,0.050
'14:10.794',0.000,0.040
'14:10.797',-0.035,0.025
'14:10.800',-0.065,0.015
'14:10.803',-0.080,0.030
'14:10.806',-0.105,0.035
'14:10.808',-0.115,0.045
'14:10.811',-0.115,0.055
'14:10.814',-0.100,0.060
'14:10.817',-0.085,0.065
'14:10.819',-0.070,0.065
'14:10.822',-0.080,0.070
'14:10.825',-0.080,0.075
'14:10.828',-0.080,0.090
'14:10.831',-0.075,0.110
'14:10.833',-0.085,0.120
'14:10.836',-0.075,0.130
'14:10.839',-0.070,0.160
'14:10.842',-0.070,0.195
'14:10.844',-0.085,0.235
'14:10.847',-0.090,0.250
'14:10.850',-0.095,0.285
'14:10.853',-0.075,0.280
'14:10.856',-0.045,0.265
'14:10.858',-0.010,0.245
'14:10.861',0.020,0.210
'14:10.864',0.045,0.175
'14:10.867',0.060,0.140
'14:10.869',0.075,0.120
'14:10.872',0.090,0.090
'14:10.875',0.110,0.060
'14:10.878',0.140,0.040
'14:10.881',0.165,0.035
'14:10.883',0.195,0.030
'14:10.886',0.215,0.025
'14:10.889',0.215,0.015
'14:10.892',0.230,0.005
'14:10.894',0.205,-0.010
'14:10.897',0.185,-0.025
'14:10.900',0.155,-0.045
'14:10.903',0.115,-0.065
'14:10.906',0.080,-0.070
'14:10.908',0.035,-0.075
'14:10.911',-0.030,-0.065
'14:10.914',-0.090,-0.080
'14:10.917',-0.120,-0.085
'14:10.919',-0.165,-0.100
'14:10.922',-0.175,-0.110
'14:10.925',-0.185,-0.120
'14:10.928',-0.175,-0.130
'14:10.931',-0.185,-0.130
'14:10.933',-0.205,-0.130
'14:10.936',-0.220,-0.140
'14:10.939',-0.250,-0.130
'14:10.942',-0.245,-0.130
'14:10.944',-0.240,-0.130
'14:10.947',-0.220,-0.130
'14:10.950',-0.210,-0.095
'14:10.953',-0.190,-0.115
'14:10.956',-0.200,-0.115
'14:10.958',-0.195,-0.125
'14:10.961',-0.215,-0.140
'14:10.964',-0.220,-0.150
'14:10.967',-0.245,-0.160
'14:10.969',-0.215,-0.140
'14:10.972',-0.220,-0.125
'14:10.975',-0.210,-0.105
'14:10.978',-0.220,-0.055
'14:10.981',-0.235,-0.025
'14:10.983',-0.240,0.015
'14:10.986',-0.260,0.060
'14:10.989',-0.280,0.060
'14:10.992',-0.290,0.025
'14:10.994',-0.285,-0.115
'14:10.997',-0.240,-0.345
'14:11.000',-0.135,-0.680
'14:11.003',0.050,-1.055
'14:11.006',0.300,-1.405
'14:11.008',0.630,-1.675
'14:11.011',1.020,-1.855
'14:11.014',1.430,-1.935
'14:11.017',1.855,-1.960
'14:11.019',2.190,-1.940
'14:11.022',2.395,-1.915
'14:11.025',2.395,-1.885
'14:11.028',2.215,-1.840
'14:11.031',1.930,-1.800
'14:11.033',1.595,-1.755
'14:11.036',1.240,-1.690
'14:11.039',0.890,-1.575
'14:11.042',0.520,-1.390
'14:11.044',0.150,-1.135
'14:11.047',-0.190,-0.885
'14:11.050',-0.510,-0.660
'14:11.053',-0.780,-0.520
'14:11.056',-0.955,-0.420
'14:11.058',-1.015,-0.375
'14:11.061',-0.965,-0.355
'14:11.064',-0.855,-0.335
'14:11.067',-0.725,-0.305
'14:11.069',-0.600,-0.285
'14:11.072',-0.525,-0.245
'14:11.075',-0.500,-0.205
'14:11.078',-0.520,-0.185
'14:11.081',-0.545,-0.180
'14:11.083',-0.565,-0.170
'14:11.086',-0.565,-0.175
'14:11.089',-0.575,-0.180
'14:11.092',-0.565,-0.180
'14:11.094',-0.560,-0.160
'14:11.097',-0.565,-0.155
'14:11.100',-0.585,-0.145
'14:11.103',-0.605,-0.140
'14:11.106',-0.625,-0.135
'14:11.108',-0.640,-0.140
'14:11.111',-0.650,-0.125
'14:11.114',-0.660,-0.110
'14:11.117',-0.650,-0.090
'14:11.119',-0.645,-0.075
'14:11.122',-0.660,-0.055
'14:11.125',-0.665,-0.040
'14:11.128',-0.660,-0.055
'14:11.131',-0.670,-0.060
'14:11.133',-0.665,-0.055
'14:11.136',-0.655,-0.050
'14:11.139',-0.655,-0.040
'14:11.142',-0.650,-0.025
'14:11.144',-0.645,-0.005
'14:11.147',-0.670,0.015
'14:11.150',-0.670,0.035
'14:11.153',-0.655,0.045
'14:11.156',-0.650,0.040
'14:11.158',-0.630,0.040
'14:11.161',-0.620,0.055
'14:11.164',-0.605,0.065
'14:11.167',-0.605,0.070
'14:11.169',-0.600,0.095
'14:11.172',-0.600,0.115
'14:11.175',-0.585,0.135
'14:11.178',-0.555,0.140
'14:11.181',-0.525,0.150
'14:11.183',-0.490,0.170
'14:11.186',-0.465,0.180
'14:11.189',-0.440,0.205
'14:11.192',-0.435,0.215
'14:11.194',-0.430,0.220
'14:11.197',-0.425,0.225
'14:11.200',-0.405,0.230
'14:11.203',-0.370,0.240
'14:11.206',-0.355,0.235
'14:11.208',-0.275,0.250
'14:11.211',-0.245,0.265
'14:11.214',-0.210,0.265
'14:11.217',-0.190,0.280
'14:11.219',-0.155,0.290
'14:11.222',-0.125,0.290
'14:11.225',-0.085,0.270
'14:11.228',-0.050,0.265
'14:11.231',-0.025,0.255
'14:11.233',0.005,0.245
'14:11.236',0.035,0.255
'14:11.239',0.045,0.250
'14:11.242',0.075,0.270
'14:11.244',0.105,0.260
'14:11.247',0.145,0.240
'14:11.250',0.190,0.240
'14:11.253',0.225,0.225
'14:11.256',0.265,0.215
'14:11.258',0.295,0.195
'14:11.261',0.315,0.185
'14:11.264',0.320,0.165
'14:11.267',0.340,0.140
'14:11.269',0.360,0.115
'14:11.272',0.370,0.110
'14:11.275',0.400,0.090
'14:11.278',0.415,0.090
'14:11.281',0.415,0.080
'14:11.283',0.410,0.075
'14:11.286',0.395,0.060
'14:11.289',0.400,0.050
'14:11.292',0.410,0.035
'14:11.294',0.430,0.030
'14:11.297',0.420,-0.010
'14:11.300',0.415,-0.025
'14:11.303',0.410,-0.030
'14:11.306',0.380,-0.030
'14:11.308',0.365,-0.025
'14:11.311',0.330,-0.035
'14:11.314',0.310,-0.020
'14:11.317',0.305,-0.015
'14:11.319',0.300,-0.020
'14:11.322',0.285,-0.035
'14:11.325',0.255,-0.020
'14:11.328',0.225,-0.040
'14:11.331',0.185,-0.030
'14:11.333',0.140,-0.035
'14:11.336',0.115,-0.010
'14:11.339',0.075,-0.020
'14:11.342',0.065,-0.015
'14:11.344',0.065,0.005
'14:11.347',0.060,0.000
'14:11.350',0.035,0.020
'14:11.353',0.015,0.030
'14:11.356',-0.020,0.025
'14:11.358',-0.050,0.040
'14:11.361',-0.075,0.050
'14:11.364',-0.080,0.065
'14:11.367',-0.105,0.065
'14:11.369',-0.125,0.090
'14:11.372',-0.130,0.110
'14:11.375',-0.160,0.115
'14:11.378',-0.170,0.150
'14:11.381',-0.180,0.185
'14:11.383',-0.175,0.210
'14:11.386',-0.175,0.235
'14:11.389',-0.165,0.250
'14:11.392',-0.160,0.270
'14:11.394',-0.165,0.295
'14:11.397',-0.180,0.310
'14:11.400',-0.190,0.310
'14:11.403',-0.200,0.325
'14:11.406',-0.185,0.320
'14:11.408',-0.155,0.295
'14:11.411',-0.120,0.255
'14:11.414',-0.075,0.220
'14:11.417',-0.040,0.200
'14:11.419',-0.005,0.155
'14:11.422',0.025,0.125
'14:11.425',0.030,0.095
'14:11.428',0.045,0.080
'14:11.431',0.070,0.065
'14:11.433',0.090,0.045
'14:11.436',0.110,0.030
'14:11.439',0.115,0.035
'14:11.442',0.110,0.030
'14:11.444',0.105,0.025
'14:11.447',0.095,0.015
'14:11.450',0.090,0.020
'14:11.453',0.075,0.015
'14:11.456',0.025,-0.005
'14:11.458',-0.030,-0.015
'14:11.461',-0.100,-0.050
'14:11.464',-0.165,-0.065
'14:11.467',-0.230,-0.080
'14:11.469',-0.275,-0.095
'14:11.472',-0.295,-0.095
'14:11.475',-0.295,-0.085
'14:11.478',-0.270,-0.085
'14:11.481',-0.260,-0.085
'14:11.483',-0.260,-0.090
'14:11.486',-0.260,-0.080
'14:11.489',-0.270,-0.100
'14:11.492',-0.270,-0.095
'14:11.494',-0.275,-0.105
'14:11.497',-0.275,-0.100
'14:11.500',-0.280,-0.115
'14:11.503',-0.280,-0.115
'14:11.506',-0.310,-0.135
'14:11.508',-0.315,-0.125
'14:11.511',-0.315,-0.115
'14:11.514',-0.310,-0.110
'14:11.517',-0.290,-0.085
'14:11.519',-0.275,-0.070
'14:11.522',-0.270,-0.055
'14:11.525',-0.275,-0.040
'14:11.528',-0.290,0.005
'14:11.531',-0.320,0.035
'14:11.533',-0.355,0.045
'14:11.536',-0.370,0.050
'14:11.539',-0.375,-0.045
'14:11.542',-0.335,-0.250
'14:11.544',-0.225,-0.560
'14:11.547',-0.050,-0.955
'14:11.550',0.225,-1.340
'14:11.553',0.585,-1.705
'14:11.556',1.015,-1.970
'14:11.558',1.485,-2.135
'14:11.561',1.925,-2.180
'14:11.564',2.265,-2.165
'14:11.567',2.445,-2.110
'14:11.569',2.440,-2.035
'14:11.572',2.240,-1.975
'14:11.575',1.910,-1.910
'14:11.578',1.505,-1.845
'14:11.581',1.065,-1.715
'14:11.583',0.630,-1.490
'14:11.586',0.215,-1.165
'14:11.589',-0.165,-0.835
'14:11.592',-0.500,-0.540
'14:11.594',-0.770,-0.360
'14:11.597',-0.915,-0.260
'14:11.600',-0.940,-0.245
'14:11.603',-0.845,-0.255
'14:11.606',-0.710,-0.265
'14:11.608',-0.570,-0.260
'14:11.611',-0.480,-0.240
'14:11.614',-0.450,-0.200
'14:11.617',-0.470,-0.180
'14:11.619',-0.515,-0.170
'14:11.622',-0.555,-0.160
'14:11.625',-0.590,-0.145
'14:11.628',-0.610,-0.150
'14:11.631',-0.615,-0.155
'14:11.633',-0.610,-0.135
'14:11.636',-0.620,-0.120
'14:11.639',-0.630,-0.125
'14:11.642',-0.645,-0.120
'14:11.644',-0.640,-0.110
'14:11.647',-0.655,-0.100
'14:11.650',-0.655,-0.075
'14:11.653',-0.650,-0.070
'14:11.656',-0.650,-0.045
'14:11.658',-0.670,-0.030
'14:11.661',-0.680,-0.035
'14:11.664',-0.680,-0.040
'14:11.667',-0.700,-0.045
'14:11.669',-0.705,-0.040
'14:11.672',-0.705,-0.030
'14:11.675',-0.700,-0.010
'14:11.678',-0.695,0.010
'14:11.681',-0.705,0.010
'14:11.683',-0.695,0.040
'14:11.686',-0.705,0.050
'14:11.689',-0.705,0.055
'14:11.692',-0.700,0.070
'14:11.694',-0.695,0.065
'14:11.697',-0.675,0.075
'14:11.700',-0.655,0.090
'14:11.703',-0.655,0.100
'14:11.706',-0.650,0.115
'14:11.708',-0.640,0.130
'14:11.711',-0.620,0.135
'14:11.714',-0.600,0.155
'14:11.717',-0.565,0.175
'14:11.719',-0.545,0.175
'14:11.722',-0.520,0.200
'14:11.725',-0.510,0.225
'14:11.728',-0.495,0.230
'14:11.731',-0.475,0.230
'14:11.733',-0.460,0.235
'14:11.736',-0.435,0.235
'14:11.739',-0.400,0.255
'14:11.742',-0.350,0.270
'14:11.744',-0.305,0.285
'14:11.747',-0.280,0.310
'14:11.750',-0.235,0.335
'14:11.753',-0.210,0.345
'14:11.756',-0.175,0.325
'14:11.758',-0.135,0.310
'14:11.761',-0.110,0.305
'14:11.764',-0.070,0.300
'14:11.767',-0.035,0.295
'14:11.769',0.005,0.295
'14:11.772',0.035,0.300
'14:11.775',0.055,0.315
'14:11.778',0.110,0.310
'14:11.781',0.145,0.290
'14:11.783',0.200,0.285
'14:11.786',0.260,0.280
'14:11.789',0.290,0.275
'14:11.792',0.325,0.255
'14:11.794',0.340,0.245
'14:11.797',0.350,0.240
'14:11.800',0.365,0.230
'14:11.803',0.375,0.210
'14:11.806',0.390,0.200
'14:11.808',0.410,0.190
'14:11.811',0.435,0.195
'14:11.814',0.445,0.185
'14:11.817',0.445,0.200
'14:11.819',0.455,0.185
'14:11.822',0.445,0.170
'14:11.825',0.440,0.155
'14:11.828',0.445,0.130
'14:11.831',0.440,0.090
'14:11.833',0.420,0.085
'14:11.836',0.410,0.065
'14:11.839',0.395,0.070
'14:11.842',0.375,0.065
'14:11.844',0.355,0.075
'14:11.847',0.335,0.060
'14:11.850',0.320,0.070
'14:11.853',0.330,0.055
'14:11.856',0.325,0.040
'14:11.858',0.310,0.040
'14:11.861',0.285,0.025
'14:11.864',0.250,0.020
'14:11.867',0.225,0.015
'14:11.869',0.190,0.020
'14:11.872',0.160,0.025
'14:11.875',0.145,0.025
'14:11.878',0.135,0.045
'14:11.881',0.110,0.055
'14:11.883',0.100,0.070
'14:11.886',0.070,0.075
'14:11.889',0.045,0.075
'14:11.892',0.020,0.090
'14:11.894',-0.010,0.090
'14:11.897',-0.025,0.095
'14:11.900',-0.040,0.105
'14:11.903',-0.065,0.085
'14:11.906',-0.100,0.095
'14:11.908',-0.105,0.105
'14:11.911',-0.120,0.115
'14:11.914',-0.140,0.130
'14:11.917',-0.150,0.155
'14:11.919',-0.160,0.175
'14:11.922',-0.165,0.190
'14:11.925',-0.170,0.200
'14:11.928',-0.175,0.210
'14:11.931',-0.205,0.240
'14:11.933',-0.205,0.255
'14:11.936',-0.225,0.280
'14:11.939',-0.230,0.325
'14:11.942',-0.230,0.355
'14:11.944',-0.220,0.370
'14:11.947',-0.200,0.365
'14:11.950',-0.180,0.355
'14:11.953',-0.155,0.325
'14:11.956',-0.140,0.295
'14:11.958',-0.135,0.270
'14:11.961',-0.115,0.240
'14:11.964',-0.105,0.210
'14:11.967',-0.085,0.190
'14:11.969',-0.055,0.150
'14:11.972',-0.045,0.115
'14:11.975',-0.020,0.075
'14:11.978',-0.015,0.065
'14:11.981',-0.010,0.055
'14:11.983',0.025,0.055
'14:11.986',0.040,0.055
'14:11.989',0.060,0.065
'14:11.992',0.065,0.060
'14:11.994',0.055,0.055
'14:11.997',0.030,0.025
'14:12.000',-0.015,-0.005
'14:12.003',-0.060,-0.015
'14:12.006',-0.135,-0.015
'14:12.008',-0.195,-0.035
'14:12.011',-0.235,-0.020
'14:12.014',-0.270,-0.025
'14:12.017',-0.290,-0.015
'14:12.019',-0.310,-0.025
'14:12.022',-0.325,-0.040
'14:12.025',-0.345,-0.055
'14:12.028',-0.355,-0.060
'14:12.031',-0.385,-0.070
'14:12.033',-0.390,-0.075
'14:12.036',-0.380,-0.100
'14:12.039',-0.370,-0.085
'14:12.042',-0.365,-0.080
'14:12.044',-0.360,-0.085
'14:12.047',-0.370,-0.080
'14:12.050',-0.375,-0.075
'14:12.053',-0.365,-0.080
'14:12.056',-0.380,-0.085
'14:12.058',-0.380,-0.080
'14:12.061',-0.390,-0.080
'14:12.064',-0.390,-0.080
'14:12.067',-0.395,-0.080
'14:12.069',-0.375,-0.090
'14:12.072',-0.390,-0.075
'14:12.075',-0.395,-0.070
'14:12.078',-0.400,-0.045
'14:12.081',-0.400,-0.005
'14:12.083',-0.395,0.065
'14:12.086',-0.400,0.120
'14:12.089',-0.400,0.155
'14:12.092',-0.410,0.155
'14:12.094',-0.435,0.095
'14:12.097',-0.435,-0.005
'14:12.100',-0.415,-0.170
'14:12.103',-0.340,-0.415
'14:12.106',-0.205,-0.725
'14:12.108',-0.020,-1.065
'14:12.111',0.245,-1.385
'14:12.114',0.560,-1.655
'14:12.117',0.935,-1.855
'14:12.119',1.340,-1.980
'14:12.122',1.735,-2.045
'14:12.125',2.070,-2.025
'14:12.128',2.280,-2.015
'14:12.131',2.280,-1.990
'14:12.133',2.130,-1.940
'14:12.136',1.845,-1.915
'14:12.139',1.460,-1.865
'14:12.142',1.050,-1.790
'14:12.144',0.635,-1.595
'14:12.147',0.260,-1.295
'14:12.150',-0.070,-0.945
'14:12.153',-0.360,-0.625
'14:12.156',-0.615,-0.400
'14:12.158',-0.810,-0.290
'14:12.161',-0.920,-0.240
'14:12.164',-0.945,-0.245
'14:12.167',-0.870,-0.260
'14:12.169',-0.750,-0.275
'14:12.172',-0.640,-0.265
'14:12.175',-0.565,-0.250
'14:12.178',-0.540,-0.235
'14:12.181',-0.550,-0.200
'14:12.183',-0.560,-0.185
'14:12.186',-0.585,-0.165
'14:12.189',-0.605,-0.160
'14:12.192',-0.630,-0.145
'14:12.194',-0.650,-0.145
'14:12.197',-0.665,-0.155
'14:12.200',-0.655,-0.160
'14:12.203',-0.655,-0.170
'14:12.206',-0.655,-0.160
'14:12.208',-0.640,-0.120
'14:12.211',-0.645,-0.100
'14:12.214',-0.635,-0.065
'14:12.217',-0.635,-0.060
'14:12.219',-0.650,-0.055
'14:12.222',-0.640,-0.060
'14:12.225',-0.670,-0.060
'14:12.228',-0.645,-0.070
'14:12.231',-0.635,-0.065
'14:12.233',-0.645,-0.050
'14:12.236',-0.645,-0.045
'14:12.239',-0.645,-0.020
'14:12.242',-0.650,-0.020
'14:12.244',-0.635,-0.005
'14:12.247',-0.635,-0.005
'14:12.250',-0.610,0.010
'14:12.253',-0.580,0.030
'14:12.256',-0.570,0.055
'14:12.258',-0.550,0.075
'14:12.261',-0.550,0.080
'14:12.264',-0.550,0.080
'14:12.267',-0.545,0.070
'14:12.269',-0.535,0.075
'14:12.272',-0.515,0.090
'14:12.275',-0.480,0.130
'14:12.278',-0.455,0.150
'14:12.281',-0.425,0.185
'14:12.283',-0.390,0.205
'14:12.286',-0.360,0.225
'14:12.289',-0.325,0.235
'14:12.292',-0.300,0.235
'14:12.294',-0.260,0.220
'14:12.297',-0.230,0.225
'14:12.300',-0.205,0.220
'14:12.303',-0.175,0.240
'14:12.306',-0.165,0.265
'14:12.308',-0.130,0.275
'14:12.311',-0.095,0.300
'14:12.314',-0.060,0.310
'14:12.317',-0.010,0.325
'14:12.319',0.040,0.320
'14:12.322',0.095,0.320
'14:12.325',0.155,0.340
'14:12.328',0.190,0.340
'14:12.331',0.220,0.350
'14:12.333',0.245,0.345
'14:12.336',0.265,0.325
'14:12.339',0.285,0.320
'14:12.342',0.320,0.295
'14:12.344',0.360,0.300
'14:12.347',0.405,0.300
'14:12.350',0.455,0.310
'14:12.353',0.490,0.315
'14:12.356',0.510,0.310
'14:12.358',0.515,0.300
'14:12.361',0.530,0.265
'14:12.364',0.555,0.250
'14:12.367',0.565,0.240
'14:12.369',0.575,0.205
'14:12.372',0.585,0.200
'14:12.375',0.590,0.180
'14:12.378',0.600,0.180
'14:12.381',0.600,0.170
'14:12.383',0.620,0.170
'14:12.386',0.635,0.155
'14:12.389',0.640,0.135
'14:12.392',0.630,0.110
'14:12.394',0.630,0.095
'14:12.397',0.600,0.055
'14:12.400',0.595,0.050
'14:12.403',0.565,0.030
'14:12.406',0.550,0.030
'14:12.408',0.550,0.005
'14:12.411',0.545,-0.005
'14:12.414',0.535,-0.015
'14:12.417',0.515,-0.020
'14:12.419',0.505,-0.020
'14:12.422',0.465,-0.025
'14:12.425',0.445,-0.020
'14:12.428',0.410,-0.025
'14:12.431',0.370,-0.030
'14:12.433',0.345,-0.040
'14:12.436',0.320,-0.050
'14:12.439',0.305,-0.045
'14:12.442',0.285,-0.050
'14:12.444',0.270,-0.045
'14:12.447',0.250,-0.010
'14:12.450',0.240,0.005
'14:12.453',0.225,0.025
'14:12.456',0.195,0.025
'14:12.458',0.180,0.035
'14:12.461',0.155,0.025
'14:12.464',0.105,0.020
'14:12.467',0.055,0.040
'14:12.469',0.010,0.040
'14:12.472',-0.030,0.080
'14:12.475',-0.065,0.075
'14:12.478',-0.075,0.085
'14:12.481',-0.080,0.095
'14:12.483',-0.095,0.105
'14:12.486',-0.100,0.095
'14:12.489',-0.115,0.085
'14:12.492',-0.125,0.100
'14:12.494',-0.135,0.105
'14:12.497',-0.145,0.125
'14:12.500',-0.150,0.135
'14:12.503',-0.155,0.160
'14:12.506',-0.140,0.165
'14:12.508',-0.160,0.200
'14:12.511',-0.175,0.235
'14:12.514',-0.175,0.275
'14:12.517',-0.180,0.300
'14:12.519',-0.160,0.300
'14:12.522',-0.125,0.280
'14:12.525',-0.100,0.260
'14:12.528',-0.065,0.230
'14:12.531',-0.050,0.190
'14:12.533',-0.020,0.160
'14:12.536',-0.010,0.135
'14:12.539',0.010,0.120
'14:12.542',0.040,0.090
'14:12.544',0.075,0.060
'14:12.547',0.110,0.040
'14:12.550',0.150,0.025
'14:12.553',0.185,0.000
'14:12.556',0.195,-0.005
'14:12.558',0.205,-0.005
'14:12.561',0.190,-0.015
'14:12.564',0.155,-0.050
'14:12.567',0.130,-0.070
'14:12.569',0.065,-0.085
'14:12.572',0.000,-0.080
'14:12.575',-0.065,-0.105
'14:12.578',-0.140,-0.100
'14:12.581',-0.195,-0.105
'14:12.583',-0.225,-0.110
'14:12.586',-0.230,-0.115
'14:12.589',-0.225,-0.110
'14:12.592',-0.210,-0.135
'14:12.594',-0.220,-0.150
'14:12.597',-0.225,-0.150
'14:12.600',-0.235,-0.160
'14:12.603',-0.245,-0.160
'14:12.606',-0.245,-0.150
'14:12.608',-0.240,-0.155
'14:12.611',-0.235,-0.145
'14:12.614',-0.235,-0.145
'14:12.617',-0.230,-0.145
'14:12.619',-0.235,-0.145
'14:12.622',-0.220,-0.160
'14:12.625',-0.215,-0.160
'14:12.628',-0.220,-0.165
'14:12.631',-0.225,-0.170
'14:12.633',-0.230,-0.165
'14:12.636',-0.235,-0.155
'14:12.639',-0.235,-0.135
'14:12.642',-0.235,-0.110
'14:12.644',-0.260,-0.060
'14:12.647',-0.255,0.005
'14:12.650',-0.270,0.055
'14:12.653',-0.280,0.065
'14:12.656',-0.265,0.025
'14:12.658',-0.250,-0.125
'14:12.661',-0.205,-0.380
'14:12.664',-0.115,-0.715
'14:12.667',0.045,-1.090
'14:12.669',0.280,-1.450
'14:12.672',0.575,-1.730
'14:12.675',0.925,-1.895
'14:12.678',1.335,-1.985
'14:12.681',1.715,-2.040
'14:12.683',2.040,-2.035
'14:12.686',2.260,-2.015
'14:12.689',2.360,-1.985
'14:12.692',2.290,-1.935
'14:12.694',2.045,-1.880
'14:12.697',1.695,-1.805
'14:12.700',1.275,-1.710
'14:12.703',0.835,-1.585
'14:12.706',0.410,-1.355
'14:12.708',0.005,-1.095
'14:12.711',-0.325,-0.840
'14:12.714',-0.635,-0.645
'14:12.717',-0.855,-0.515
'14:12.719',-0.975,-0.420
'14:12.722',-0.990,-0.355
'14:12.725',-0.925,-0.325
'14:12.728',-0.820,-0.295
'14:12.731',-0.695,-0.270
'14:12.733',-0.605,-0.250
'14:12.736',-0.550,-0.235
'14:12.739',-0.525,-0.210
'14:12.742',-0.530,-0.210
'14:12.744',-0.550,-0.195
'14:12.747',-0.580,-0.180
'14:12.750',-0.600,-0.165
'14:12.753',-0.585,-0.155
'14:12.756',-0.585,-0.155
'14:12.758',-0.580,-0.140
'14:12.761',-0.595,-0.150
'14:12.764',-0.610,-0.150
'14:12.767',-0.630,-0.135
'14:12.769',-0.640,-0.120
'14:12.772',-0.645,-0.105
'14:12.775',-0.655,-0.100
'14:12.778',-0.660,-0.085
'14:12.781',-0.650,-0.075
'14:12.783',-0.650,-0.055
'14:12.786',-0.665,-0.055
'14:12.789',-0.650,-0.050
'14:12.792',-0.650,-0.055
'14:12.794',-0.650,-0.050
'14:12.797',-0.655,-0.040
'14:12.800',-0.640,-0.025
'14:12.803',-0.635,-0.015
'14:12.806',-0.645,0.000
'14:12.808',-0.645,0.020
'14:12.811',-0.640,0.030
'14:12.814',-0.640,0.045
'14:12.817',-0.615,0.070
'14:12.819',-0.570,0.085
'14:12.822',-0.540,0.105
'14:12.825',-0.520,0.120
'14:12.828',-0.520,0.110
'14:12.831',-0.520,0.120
'14:12.833',-0.535,0.125
'14:12.836',-0.530,0.115
'14:12.839',-0.525,0.125
'14:12.842',-0.485,0.140
'14:12.844',-0.455,0.165
'14:12.847',-0.420,0.195
'14:12.850',-0.405,0.220
'14:12.853',-0.385,0.240
'14:12.856',-0.360,0.245
'14:12.858',-0.340,0.245
'14:12.861',-0.320,0.250
'14:12.864',-0.280,0.260
'14:12.867',-0.260,0.250
'14:12.869',-0.245,0.270
'14:12.872',-0.230,0.280
'14:12.875',-0.215,0.285
'14:12.878',-0.195,0.285
'14:12.881',-0.180,0.285
'14:12.883',-0.140,0.295
'14:12.886',-0.085,0.310
'14:12.889',-0.035,0.305
'14:12.892',0.005,0.295
'14:12.894',0.040,0.285
'14:12.897',0.060,0.285
'14:12.900',0.070,0.280
'14:12.903',0.075,0.245
'14:12.906',0.100,0.240
'14:12.908',0.135,0.225
'14:12.911',0.170,0.200
'14:12.914',0.215,0.200
'14:12.917',0.255,0.195
'14:12.919',0.285,0.205
'14:12.922',0.295,0.180
'14:12.925',0.310,0.175
'14:12.928',0.320,0.165
'14:12.931',0.340,0.135
'14:12.933',0.355,0.100
'14:12.936',0.365,0.085
'14:12.939',0.375,0.075
'14:12.942',0.380,0.065
'14:12.944',0.395,0.070
'14:12.947',0.385,0.065
'14:12.950',0.365,0.070
'14:12.953',0.380,0.060
'14:12.956',0.385,0.045
'14:12.958',0.395,0.030
'14:12.961',0.380,0.015
'14:12.964',0.370,0.005
'14:12.967',0.340,-0.005
'14:12.969',0.310,0.005
'14:12.972',0.275,0.005
'14:12.975',0.250,0.015
'14:12.978',0.220,0.010
'14:12.981',0.215,0.015
'14:12.983',0.220,0.005
'14:12.986',0.215,0.005
'14:12.989',0.200,0.000
'14:12.992',0.185,0.015
'14:12.994',0.140,0.020
'14:12.997',0.115,0.010
'14:13.000',0.060,0.010
'14:13.003',0.030,0.010
'14:13.006',0.010,0.015
'14:13.008',-0.025,0.030
'14:13.011',-0.045,0.045
'14:13.014',-0.055,0.050
'14:13.017',-0.075,0.080
'14:13.019',-0.105,0.110
'14:13.022',-0.120,0.125
'14:13.025',-0.145,0.125
'14:13.028',-0.170,0.110
'14:13.031',-0.205,0.130
'14:13.033',-0.225,0.120
'14:13.036',-0.255,0.120
'14:13.039',-0.290,0.130
'14:13.042',-0.310,0.145
'14:13.044',-0.320,0.155
'14:13.047',-0.325,0.155
'14:13.050',-0.325,0.155
'14:13.053',-0.315,0.150
'14:13.056',-0.310,0.135
'14:13.058',-0.320,0.150
'14:13.061',-0.330,0.155
'14:13.064',-0.350,0.165
'14:13.067',-0.360,0.190
'14:13.069',-0.360,0.195
'14:13.072',-0.350,0.210
'14:13.075',-0.330,0.200
'14:13.078',-0.315,0.235
'14:13.081',-0.300,0.245
'14:13.083',-0.275,0.280
'14:13.086',-0.285,0.320
'14:13.089',-0.300,0.340
'14:13.092',-0.310,0.385
'14:13.094',-0.315,0.385
'14:13.097',-0.310,0.370
'14:13.100',-0.305,0.335
'14:13.103',-0.280,0.300
'14:13.106',-0.250,0.285
'14:13.108',-0.230,0.255
'14:13.111',-0.180,0.255
'14:13.114',-0.150,0.245
'14:13.117',-0.115,0.220
'14:13.119',-0.080,0.195
'14:13.122',-0.050,0.150
'14:13.125',-0.015,0.115
'14:13.128',-0.005,0.095
'14:13.131',-0.005,0.075
'14:13.133',-0.020,0.070
'14:13.136',-0.020,0.060
'14:13.139',-0.040,0.055
'14:13.142',-0.050,0.065
'14:13.144',-0.060,0.050
'14:13.147',-0.075,0.030
'14:13.150',-0.130,0.015
'14:13.153',-0.180,0.015
'14:13.156',-0.240,-0.015
'14:13.158',-0.290,-0.020
'14:13.161',-0.330,-0.030
'14:13.164',-0.370,-0.045
'14:13.167',-0.375,-0.040
'14:13.169',-0.390,-0.050
'14:13.172',-0.390,-0.045
'14:13.175',-0.390,-0.055
'14:13.178',-0.405,-0.050
'14:13.181',-0.400,-0.060
'14:13.183',-0.405,-0.055
'14:13.186',-0.390,-0.055
'14:13.189',-0.400,-0.050
'14:13.192',-0.380,-0.065
'14:13.194',-0.375,-0.070
'14:13.197',-0.365,-0.080
'14:13.200',-0.370,-0.100
'14:13.203',-0.385,-0.105
'14:13.206',-0.400,-0.095
'14:13.208',-0.415,-0.100
'14:13.211',-0.410,-0.085
'14:13.214',-0.400,-0.080
'14:13.217',-0.385,-0.070
'14:13.219',-0.365,-0.055
'14:13.222',-0.355,-0.040
'14:13.225',-0.375,0.000
'14:13.228',-0.395,0.035
'14:13.231',-0.430,0.085
'14:13.233',-0.450,0.125
'14:13.236',-0.480,0.135
'14:13.239',-0.505,0.090
'14:13.242',-0.500,-0.045
'14:13.244',-0.440,-0.250
'14:13.247',-0.340,-0.575
'14:13.250',-0.175,-0.920
'14:13.253',0.080,-1.260
'14:13.256',0.385,-1.555
'14:13.258',0.740,-1.745
'14:13.261',1.130,-1.860
'14:13.264',1.535,-1.915
'14:13.267',1.890,-1.925
'14:13.269',2.125,-1.895
'14:13.272',2.190,-1.845
'14:13.275',2.055,-1.790
'14:13.278',1.790,-1.715
'14:13.281',1.455,-1.640
'14:13.283',1.085,-1.545
'14:13.286',0.695,-1.400
'14:13.289',0.295,-1.210
'14:13.292',-0.105,-0.965
'14:13.294',-0.480,-0.740
'14:13.297',-0.795,-0.575
'14:13.300',-1.065,-0.440
'14:13.303',-1.210,-0.345
