'Elapsed time','MLII','V1'
'hh:mm:ss.mmm','mV','mV'
'18:00.000',-0.185,0.090
'18:00.003',-0.195,0.080
'18:00.006',-0.190,0.095
'18:00.008',-0.170,0.100
'18:00.011',-0.160,0.100
'18:00.014',-0.150,0.095
'18:00.017',-0.155,0.085
'18:00.019',-0.145,0.075
'18:00.022',-0.125,0.080
'18:00.025',-0.100,0.085
'18:00.028',-0.070,0.080
'18:00.031',-0.060,0.065
'18:00.033',-0.060,0.045
'18:00.036',-0.035,0.035
'18:00.039',-0.015,0.040
'18:00.042',0.005,0.050
'18:00.044',0.015,0.020
'18:00.047',0.025,0.010
'18:00.050',0.020,-0.010
'18:00.053',0.000,-0.015
'18:00.056',-0.005,-0.010
'18:00.058',0.020,-0.015
'18:00.061',0.040,-0.005
'18:00.064',0.030,0.000
'18:00.067',-0.020,-0.010
'18:00.069',-0.120,0.000
'18:00.072',-0.325,0.025
'18:00.075',-0.650,0.085
'18:00.078',-1.045,0.155
'18:00.081',-1.420,0.225
'18:00.083',-1.730,0.305
'18:00.086',-1.925,0.345
'18:00.089',-1.995,0.395
'18:00.092',-2.010,0.450
'18:00.094',-2.020,0.465
'18:00.097',-2.020,0.485
'18:00.100',-1.960,0.480
'18:00.103',-1.855,0.500
'18:00.106',-1.720,0.505
'18:00.108',-1.585,0.520
'18:00.111',-1.485,0.545
'18:00.114',-1.415,0.560
'18:00.117',-1.360,0.590
'18:00.119',-1.255,0.605
'18:00.122',-1.145,0.620
'18:00.125',-1.025,0.620
'18:00.128',-0.920,0.625
'18:00.131',-0.870,0.620
'18:00.133',-0.835,0.620
'18:00.136',-0.805,0.605
'18:00.139',-0.750,0.595
'18:00.142',-0.695,0.585
'18:00.144',-0.625,0.555
'18:00.147',-0.585,0.530
'18:00.150',-0.530,0.500
'18:00.153',-0.475,0.475
'18:00.156',-0.425,0.455
'18:00.158',-0.375,0.425
'18:00.161',-0.320,0.390
'18:00.164',-0.265,0.345
'18:00.167',-0.195,0.305
'18:00.169',-0.115,0.265
'18:00.172',-0.040,0.205
'18:00.175',0.040,0.155
'18:00.178',0.090,0.095
'18:00.181',0.135,0.040
'18:00.183',0.160,0.000
'18:00.186',0.165,-0.020
'18:00.189',0.190,-0.025
'18:00.192',0.210,-0.030
'18:00.194',0.240,-0.060
'18:00.197',0.270,-0.085
'18:00.200',0.280,-0.105
'18:00.203',0.280,-0.120
'18:00.206',0.285,-0.120
'18:00.208',0.305,-0.105
'18:00.211',0.315,-0.120
'18:00.214',0.355,-0.130
'18:00.217',0.360,-0.150
'18:00.219',0.360,-0.160
'18:00.222',0.390,-0.150
'18:00.225',0.405,-0.150
'18:00.228',0.430,-0.150
'18:00.231',0.455,-0.165
'18:00.233',0.455,-0.180
'18:00.236',0.465,-0.200
'18:00.239',0.490,-0.190
'18:00.242',0.505,-0.190
'18:00.244',0.540,-0.205
'18:00.247',0.565,-0.210
'18:00.250',0.590,-0.230
'18:00.253',0.590,-0.245
'18:00.256',0.610,-0.240
'18:00.258',0.630,-0.240
'18:00.261',0.655,-0.235
'18:00.264',0.670,-0.245
'18:00.267',0.670,-0.255
'18:00.269',0.670,-0.270
'18:00.272',0.685,-0.250
'18:00.275',0.700,-0.250
'18:00.278',0.725,-0.275
'18:00.281',0.735,-0.270
'18:00.283',0.745,-0.295
'18:00.286',0.750,-0.305
'18:00.289',0.755,-0.305
'18:00.292',0.760,-0.295
'18:00.294',0.780,-0.305
'18:00.297',0.780,-0.310
'18:00.300',0.765,-0.325
'18:00.303',0.750,-0.325
'18:00.306',0.765,-0.320
'18:00.308',0.770,-0.295
'18:00.311',0.775,-0.300
'18:00.314',0.775,-0.315
'18:00.317',0.785,-0.325
'18:00.319',0.760,-0.330
'18:00.322',0.750,-0.310
'18:00.325',0.740,-0.300
'18:00.328',0.725,-0.305
'18:00.331',0.715,-0.295
'18:00.333',0.695,-0.310
'18:00.336',0.655,-0.315
'18:00.339',0.640,-0.295
'18:00.342',0.620,-0.270
'18:00.344',0.600,-0.260
'18:00.347',0.580,-0.275
'18:00.350',0.545,-0.270
'18:00.353',0.515,-0.265
'18:00.356',0.480,-0.250
'18:00.358',0.455,-0.240
'18:00.361',0.445,-0.225
'18:00.364',0.415,-0.220
'18:00.367',0.390,-0.220
'18:00.369',0.365,-0.195
'18:00.372',0.355,-0.185
'18:00.375',0.340,-0.170
'18:00.378',0.330,-0.155
'18:00.381',0.310,-0.150
'18:00.383',0.290,-0.150
'18:00.386',0.255,-0.130
'18:00.389',0.230,-0.105
'18:00.392',0.215,-0.085
'18:00.394',0.205,-0.070
'18:00.397',0.185,-0.070
'18:00.400',0.165,-0.080
'18:00.403',0.135,-0.075
'18:00.406',0.120,-0.055
'18:00.408',0.120,-0.040
'18:00.411',0.115,-0.020
'18:00.414',0.100,-0.035
'18:00.417',0.090,-0.015
'18:00.419',0.060,-0.020
'18:00.422',0.065,-0.010
'18:00.425',0.050,0.005
'18:00.428',0.050,0.010
'18:00.431',0.040,0.025
'18:00.433',0.040,0.015
'18:00.436',0.020,0.020
'18:00.439',0.005,0.045
'18:00.442',0.005,0.045
'18:00.444',0.010,0.050
'18:00.447',0.010,0.055
'18:00.450',0.005,0.040
'18:00.453',-0.015,0.050
'18:00.456',-0.010,0.055
'18:00.458',-0.010,0.070
'18:00.461',-0.005,0.065
'18:00.464',-0.005,0.060
'18:00.467',-0.010,0.035
'18:00.469',-0.030,0.040
'18:00.472',-0.020,0.055
'18:00.475',-0.025,0.075
'18:00.478',-0.040,0.060
'18:00.481',-0.025,0.060
'18:00.483',-0.020,0.055
'18:00.486',-0.025,0.055
'18:00.489',-0.025,0.070
'18:00.492',-0.025,0.080
'18:00.494',-0.020,0.060
'18:00.497',-0.020,0.065
'18:00.500',-0.020,0.050
'18:00.503',-0.045,0.050
'18:00.506',-0.040,0.040
'18:00.508',-0.030,0.055
'18:00.511',-0.035,0.050
'18:00.514',-0.035,0.055
'18:00.517',-0.045,0.035
'18:00.519',-0.065,0.045
'18:00.522',-0.060,0.055
'18:00.525',-0.065,0.055
'18:00.528',-0.055,0.065
'18:00.531',-0.070,0.050
'18:00.533',-0.070,0.050
'18:00.536',-0.070,0.045
'18:00.539',-0.065,0.035
'18:00.542',-0.050,0.055
'18:00.544',-0.055,0.065
'18:00.547',-0.050,0.055
'18:00.550',-0.060,0.050
'18:00.553',-0.080,0.050
'18:00.556',-0.080,0.070
'18:00.558',-0.070,0.085
'18:00.561',-0.070,0.075
'18:00.564',-0.075,0.065
'18:00.567',-0.075,0.060
'18:00.569',-0.090,0.060
'18:00.572',-0.090,0.055
'18:00.575',-0.090,0.075
'18:00.578',-0.090,0.065
'18:00.581',-0.090,0.070
'18:00.583',-0.110,0.055
'18:00.586',-0.105,0.060
'18:00.589',-0.105,0.075
'18:00.592',-0.095,0.085
'18:00.594',-0.100,0.075
'18:00.597',-0.105,0.065
'18:00.600',-0.105,0.070
'18:00.603',-0.115,0.065
'18:00.606',-0.110,0.065
'18:00.608',-0.110,0.080
'18:00.611',-0.120,0.070
'18:00.614',-0.105,0.065
'18:00.617',-0.105,0.065
'18:00.619',-0.120,0.070
'18:00.622',-0.120,0.075
'18:00.625',-0.125,0.075
'18:00.628',-0.115,0.085
'18:00.631',-0.130,0.075
'18:00.633',-0.140,0.060
'18:00.636',-0.150,0.065
'18:00.639',-0.135,0.060
'18:00.642',-0.110,0.085
'18:00.644',-0.095,0.070
'18:00.647',-0.110,0.075
'18:00.650',-0.115,0.065
'18:00.653',-0.140,0.070
'18:00.656',-0.140,0.085
'18:00.658',-0.115,0.085
'18:00.661',-0.095,0.080
'18:00.664',-0.080,0.065
'18:00.667',-0.085,0.060
'18:00.669',-0.095,0.050
'18:00.672',-0.095,0.065
'18:00.675',-0.080,0.085
'18:00.678',-0.085,0.070
'18:00.681',-0.080,0.065
'18:00.683',-0.080,0.050
'18:00.686',-0.085,0.045
'18:00.689',-0.105,0.070
'18:00.692',-0.085,0.070
'18:00.694',-0.075,0.075
'18:00.697',-0.080,0.080
'18:00.700',-0.095,0.070
'18:00.703',-0.105,0.050
'18:00.706',-0.110,0.070
'18:00.708',-0.125,0.080
'18:00.711',-0.110,0.065
'18:00.714',-0.105,0.060
'18:00.717',-0.105,0.065
'18:00.719',-0.100,0.050
'18:00.722',-0.100,0.070
'18:00.725',-0.095,0.080
'18:00.728',-0.095,0.075
'18:00.731',-0.080,0.070
'18:00.733',-0.100,0.060
'18:00.736',-0.105,0.065
'18:00.739',-0.110,0.065
'18:00.742',-0.095,0.085
'18:00.744',-0.095,0.070
'18:00.747',-0.095,0.075
'18:00.750',-0.110,0.070
'18:00.753',-0.110,0.070
'18:00.756',-0.105,0.075
'18:00.758',-0.105,0.075
'18:00.761',-0.095,0.090
'18:00.764',-0.095,0.070
'18:00.767',-0.085,0.075
'18:00.769',-0.085,0.070
'18:00.772',-0.065,0.075
'18:00.775',-0.055,0.090
'18:00.778',-0.030,0.090
'18:00.781',-0.040,0.085
'18:00.783',-0.050,0.085
'18:00.786',-0.055,0.080
'18:00.789',-0.050,0.105
'18:00.792',-0.030,0.105
'18:00.794',-0.015,0.100
'18:00.797',-0.020,0.080
'18:00.800',-0.035,0.075
'18:00.803',-0.055,0.060
'18:00.806',-0.065,0.075
'18:00.808',-0.070,0.075
'18:00.811',-0.060,0.085
'18:00.814',-0.065,0.075
'18:00.817',-0.085,0.055
'18:00.819',-0.100,0.055
'18:00.822',-0.110,0.055
'18:00.825',-0.100,0.065
'18:00.828',-0.120,0.075
'18:00.831',-0.120,0.065
'18:00.833',-0.130,0.050
'18:00.836',-0.135,0.040
'18:00.839',-0.130,0.055
'18:00.842',-0.105,0.055
'18:00.844',-0.090,0.045
'18:00.847',-0.090,0.050
'18:00.850',-0.110,0.025
'18:00.853',-0.120,0.020
'18:00.856',-0.095,0.030
'18:00.858',-0.100,0.040
'18:00.861',-0.085,0.040
'18:00.864',-0.075,0.025
'18:00.867',-0.070,0.035
'18:00.869',-0.080,0.045
'18:00.872',-0.085,0.060
'18:00.875',-0.070,0.070
'18:00.878',-0.070,0.070
'18:00.881',-0.090,0.070
'18:00.883',-0.095,0.075
'18:00.886',-0.110,0.060
'18:00.889',-0.120,0.075
'18:00.892',-0.125,0.090
'18:00.894',-0.125,0.090
'18:00.897',-0.125,0.080
'18:00.900',-0.130,0.070
'18:00.903',-0.160,0.075
'18:00.906',-0.140,0.080
'18:00.908',-0.130,0.090
'18:00.911',-0.125,0.090
'18:00.914',-0.115,0.095
'18:00.917',-0.130,0.075
'18:00.919',-0.130,0.075
'18:00.922',-0.135,0.080
'18:00.925',-0.125,0.085
'18:00.928',-0.095,0.095
'18:00.931',-0.105,0.090
'18:00.933',-0.115,0.075
'18:00.936',-0.120,0.075
'18:00.939',-0.110,0.075
'18:00.942',-0.100,0.090
'18:00.944',-0.100,0.085
'18:00.947',-0.105,0.080
'18:00.950',-0.135,0.090
'18:00.953',-0.155,0.085
'18:00.956',-0.170,0.090
'18:00.958',-0.155,0.090
'18:00.961',-0.130,0.085
'18:00.964',-0.090,0.075
'18:00.967',-0.025,0.055
'18:00.969',0.055,0.060
'18:00.972',0.140,0.045
'18:00.975',0.230,0.040
'18:00.978',0.330,0.020
'18:00.981',0.405,0.015
'18:00.983',0.455,0.005
'18:00.986',0.525,-0.005
'18:00.989',0.630,-0.010
'18:00.992',0.745,-0.030
'18:00.994',0.870,-0.075
'18:00.997',1.015,-0.135
'18:01.000',1.110,-0.205
'18:01.003',1.170,-0.260
'18:01.006',1.195,-0.265
'18:01.008',1.150,-0.290
'18:01.011',1.085,-0.310
'18:01.014',0.970,-0.340
'18:01.017',0.780,-0.360
'18:01.019',0.460,-0.325
'18:01.022',0.075,-0.255
'18:01.025',-0.230,-0.190
'18:01.028',-0.395,-0.150
'18:01.031',-0.460,-0.130
'18:01.033',-0.475,-0.095
'18:01.036',-0.485,-0.070
'18:01.039',-0.465,-0.045
'18:01.042',-0.415,-0.015
'18:01.044',-0.365,0.000
'18:01.047',-0.330,0.000
'18:01.050',-0.335,0.005
'18:01.053',-0.340,0.010
'18:01.056',-0.320,0.020
'18:01.058',-0.305,0.040
'18:01.061',-0.295,0.035
'18:01.064',-0.305,0.035
'18:01.067',-0.325,0.035
'18:01.069',-0.350,0.040
'18:01.072',-0.350,0.050
'18:01.075',-0.325,0.060
'18:01.078',-0.305,0.060
'18:01.081',-0.295,0.065
'18:01.083',-0.300,0.070
'18:01.086',-0.295,0.075
'18:01.089',-0.280,0.095
'18:01.092',-0.260,0.100
'18:01.094',-0.225,0.105
'18:01.097',-0.215,0.100
'18:01.100',-0.215,0.085
'18:01.103',-0.235,0.090
'18:01.106',-0.240,0.100
'18:01.108',-0.230,0.115
'18:01.111',-0.225,0.105
'18:01.114',-0.220,0.105
'18:01.117',-0.220,0.090
'18:01.119',-0.235,0.090
'18:01.122',-0.235,0.100
'18:01.125',-0.235,0.100
'18:01.128',-0.235,0.100
'18:01.131',-0.240,0.100
'18:01.133',-0.230,0.080
'18:01.136',-0.245,0.085
'18:01.139',-0.230,0.105
'18:01.142',-0.225,0.105
'18:01.144',-0.220,0.105
'18:01.147',-0.220,0.100
'18:01.150',-0.220,0.090
'18:01.153',-0.235,0.085
'18:01.156',-0.225,0.095
'18:01.158',-0.210,0.120
'18:01.161',-0.210,0.110
'18:01.164',-0.200,0.100
'18:01.167',-0.215,0.085
'18:01.169',-0.210,0.085
'18:01.172',-0.205,0.085
'18:01.175',-0.195,0.085
'18:01.178',-0.185,0.090
'18:01.181',-0.190,0.095
'18:01.183',-0.190,0.085
'18:01.186',-0.210,0.085
'18:01.189',-0.200,0.090
'18:01.192',-0.195,0.110
'18:01.194',-0.180,0.105
'18:01.197',-0.170,0.095
'18:01.200',-0.195,0.090
'18:01.203',-0.195,0.090
'18:01.206',-0.200,0.105
'18:01.208',-0.190,0.105
'18:01.211',-0.190,0.115
'18:01.214',-0.180,0.110
'18:01.217',-0.185,0.095
'18:01.219',-0.190,0.100
'18:01.222',-0.190,0.105
'18:01.225',-0.195,0.125
'18:01.228',-0.195,0.110
'18:01.231',-0.200,0.105
'18:01.233',-0.190,0.100
'18:01.236',-0.190,0.115
'18:01.239',-0.165,0.105
'18:01.242',-0.165,0.120
'18:01.244',-0.165,0.120
'18:01.247',-0.160,0.125
'18:01.250',-0.170,0.110
'18:01.253',-0.170,0.115
'18:01.256',-0.175,0.120
'18:01.258',-0.170,0.140
'18:01.261',-0.160,0.135
'18:01.264',-0.175,0.130
'18:01.267',-0.180,0.125
'18:01.269',-0.170,0.125
'18:01.272',-0.160,0.135
'18:01.275',-0.145,0.145
'18:01.278',-0.130,0.145
'18:01.281',-0.140,0.135
'18:01.283',-0.140,0.140
'18:01.286',-0.150,0.125
'18:01.289',-0.135,0.135
'18:01.292',-0.140,0.150
'18:01.294',-0.125,0.145
'18:01.297',-0.120,0.150
'18:01.300',-0.140,0.140
'18:01.303',-0.150,0.130
'18:01.306',-0.140,0.135
'18:01.308',-0.120,0.155
'18:01.311',-0.115,0.145
'18:01.314',-0.105,0.150
'18:01.317',-0.105,0.145
'18:01.319',-0.110,0.135
'18:01.322',-0.095,0.140
'18:01.325',-0.095,0.150
'18:01.328',-0.080,0.150
'18:01.331',-0.080,0.145
'18:01.333',-0.080,0.125
'18:01.336',-0.075,0.120
'18:01.339',-0.075,0.135
'18:01.342',-0.060,0.140
'18:01.344',-0.060,0.130
'18:01.347',-0.065,0.145
'18:01.350',-0.070,0.120
'18:01.353',-0.065,0.115
'18:01.356',-0.060,0.140
'18:01.358',-0.065,0.125
'18:01.361',-0.055,0.125
'18:01.364',-0.050,0.130
'18:01.367',-0.055,0.105
'18:01.369',-0.055,0.105
'18:01.372',-0.045,0.110
'18:01.375',-0.045,0.120
'18:01.378',-0.035,0.110
'18:01.381',-0.040,0.120
'18:01.383',-0.045,0.100
'18:01.386',-0.050,0.095
'18:01.389',-0.055,0.100
'18:01.392',-0.045,0.115
'18:01.394',-0.040,0.100
'18:01.397',-0.045,0.095
'18:01.400',-0.050,0.090
'18:01.403',-0.070,0.085
'18:01.406',-0.065,0.095
'18:01.408',-0.060,0.115
'18:01.411',-0.040,0.095
'18:01.414',-0.050,0.090
'18:01.417',-0.055,0.070
'18:01.419',-0.065,0.075
'18:01.422',-0.075,0.080
'18:01.425',-0.070,0.085
'18:01.428',-0.065,0.100
'18:01.431',-0.060,0.095
'18:01.433',-0.080,0.075
'18:01.436',-0.080,0.085
'18:01.439',-0.085,0.090
'18:01.442',-0.075,0.090
'18:01.444',-0.065,0.090
'18:01.447',-0.065,0.085
'18:01.450',-0.080,0.080
'18:01.453',-0.090,0.090
'18:01.456',-0.090,0.090
'18:01.458',-0.090,0.095
'18:01.461',-0.090,0.105
'18:01.464',-0.090,0.095
'18:01.467',-0.115,0.085
'18:01.469',-0.120,0.080
'18:01.472',-0.120,0.100
'18:01.475',-0.105,0.100
'18:01.478',-0.110,0.100
'18:01.481',-0.110,0.095
'18:01.483',-0.115,0.095
'18:01.486',-0.130,0.100
'18:01.489',-0.125,0.095
'18:01.492',-0.140,0.100
'18:01.494',-0.130,0.105
'18:01.497',-0.135,0.100
'18:01.500',-0.125,0.085
'18:01.503',-0.140,0.090
'18:01.506',-0.140,0.100
'18:01.508',-0.130,0.105
'18:01.511',-0.115,0.105
'18:01.514',-0.105,0.095
'18:01.517',-0.120,0.095
'18:01.519',-0.110,0.085
'18:01.522',-0.105,0.090
'18:01.525',-0.100,0.100
'18:01.528',-0.080,0.105
'18:01.531',-0.085,0.090
'18:01.533',-0.085,0.080
'18:01.536',-0.085,0.075
'18:01.539',-0.040,0.085
'18:01.542',-0.020,0.080
'18:01.544',0.005,0.075
'18:01.547',0.020,0.075
'18:01.550',0.005,0.035
'18:01.553',-0.005,0.030
'18:01.556',0.000,0.015
'18:01.558',0.015,0.025
'18:01.561',0.050,0.010
'18:01.564',0.070,0.005
'18:01.567',0.075,-0.010
'18:01.569',0.075,0.000
'18:01.572',0.145,0.010
'18:01.575',0.180,0.025
'18:01.578',0.190,0.040
'18:01.581',0.145,0.050
'18:01.583',0.115,0.040
'18:01.586',0.070,0.055
'18:01.589',0.050,0.090
'18:01.592',0.000,0.135
'18:01.594',-0.130,0.185
'18:01.597',-0.355,0.250
'18:01.600',-0.680,0.305
'18:01.603',-1.050,0.380
'18:01.606',-1.395,0.470
'18:01.608',-1.680,0.535
'18:01.611',-1.860,0.585
'18:01.614',-1.960,0.635
'18:01.617',-1.990,0.665
'18:01.619',-2.010,0.700
'18:01.622',-2.000,0.725
'18:01.625',-1.960,0.740
'18:01.628',-1.910,0.735
'18:01.631',-1.900,0.740
'18:01.633',-1.890,0.730
'18:01.636',-1.885,0.730
'18:01.639',-1.830,0.735
'18:01.642',-1.730,0.745
'18:01.644',-1.605,0.725
'18:01.647',-1.500,0.710
'18:01.650',-1.420,0.700
'18:01.653',-1.355,0.700
'18:01.656',-1.305,0.715
'18:01.658',-1.225,0.740
'18:01.661',-1.145,0.725
'18:01.664',-1.080,0.715
'18:01.667',-1.035,0.700
'18:01.669',-1.005,0.700
'18:01.672',-0.945,0.720
'18:01.675',-0.880,0.735
'18:01.678',-0.815,0.720
'18:01.681',-0.745,0.700
'18:01.683',-0.675,0.655
'18:01.686',-0.610,0.630
'18:01.689',-0.545,0.615
'18:01.692',-0.490,0.585
'18:01.694',-0.455,0.565
'18:01.697',-0.440,0.555
'18:01.700',-0.425,0.530
'18:01.703',-0.420,0.510
'18:01.706',-0.375,0.480
'18:01.708',-0.330,0.445
'18:01.711',-0.290,0.415
'18:01.714',-0.235,0.385
'18:01.717',-0.185,0.355
'18:01.719',-0.140,0.310
'18:01.722',-0.080,0.260
'18:01.725',-0.025,0.220
'18:01.728',0.030,0.150
'18:01.731',0.055,0.105
'18:01.733',0.095,0.045
'18:01.736',0.125,0.010
'18:01.739',0.175,-0.010
'18:01.742',0.215,-0.025
'18:01.744',0.245,-0.055
'18:01.747',0.265,-0.080
'18:01.750',0.255,-0.100
'18:01.753',0.250,-0.110
'18:01.756',0.230,-0.105
'18:01.758',0.240,-0.115
'18:01.761',0.270,-0.115
'18:01.764',0.295,-0.135
'18:01.767',0.300,-0.150
'18:01.769',0.305,-0.160
'18:01.772',0.320,-0.150
'18:01.775',0.345,-0.140
'18:01.778',0.355,-0.160
'18:01.781',0.370,-0.170
'18:01.783',0.380,-0.190
'18:01.786',0.395,-0.210
'18:01.789',0.405,-0.200
'18:01.792',0.420,-0.210
'18:01.794',0.435,-0.215
'18:01.797',0.445,-0.230
'18:01.800',0.440,-0.225
'18:01.803',0.460,-0.240
'18:01.806',0.485,-0.235
'18:01.808',0.490,-0.235
'18:01.811',0.525,-0.235
'18:01.814',0.540,-0.255
'18:01.817',0.555,-0.275
'18:01.819',0.555,-0.280
'18:01.822',0.560,-0.270
'18:01.825',0.575,-0.270
'18:01.828',0.590,-0.275
'18:01.831',0.600,-0.280
'18:01.833',0.600,-0.290
'18:01.836',0.615,-0.300
'18:01.839',0.625,-0.305
'18:01.842',0.645,-0.285
'18:01.844',0.660,-0.300
'18:01.847',0.665,-0.315
'18:01.850',0.665,-0.325
'18:01.853',0.670,-0.325
'18:01.856',0.690,-0.335
'18:01.858',0.700,-0.330
'18:01.861',0.700,-0.320
'18:01.864',0.710,-0.330
'18:01.867',0.690,-0.345
'18:01.869',0.675,-0.345
'18:01.872',0.675,-0.330
'18:01.875',0.680,-0.325
'18:01.878',0.690,-0.335
'18:01.881',0.700,-0.325
'18:01.883',0.695,-0.330
'18:01.886',0.675,-0.320
'18:01.889',0.685,-0.320
'18:01.892',0.675,-0.320
'18:01.894',0.660,-0.310
'18:01.897',0.645,-0.325
'18:01.900',0.620,-0.315
'18:01.903',0.605,-0.310
'18:01.906',0.595,-0.295
'18:01.908',0.590,-0.290
'18:01.911',0.570,-0.280
'18:01.914',0.545,-0.275
'18:01.917',0.520,-0.275
'18:01.919',0.485,-0.260
'18:01.922',0.470,-0.245
'18:01.925',0.465,-0.220
'18:01.928',0.445,-0.205
'18:01.931',0.415,-0.215
'18:01.933',0.395,-0.220
'18:01.936',0.370,-0.215
'18:01.939',0.355,-0.195
'18:01.942',0.340,-0.170
'18:01.944',0.320,-0.165
'18:01.947',0.290,-0.150
'18:01.950',0.260,-0.150
'18:01.953',0.235,-0.135
'18:01.956',0.225,-0.135
'18:01.958',0.210,-0.105
'18:01.961',0.200,-0.105
'18:01.964',0.180,-0.085
'18:01.967',0.155,-0.100
'18:01.969',0.120,-0.080
'18:01.972',0.095,-0.050
'18:01.975',0.100,-0.040
'18:01.978',0.090,-0.040
'18:01.981',0.080,-0.025
'18:01.983',0.070,-0.030
'18:01.986',0.050,-0.015
'18:01.989',0.045,-0.010
'18:01.992',0.040,0.005
'18:01.994',0.025,0.025
'18:01.997',0.000,0.020
'18:02.000',0.000,0.030
'18:02.003',-0.015,0.035
'18:02.006',-0.030,0.055
'18:02.008',-0.045,0.070
'18:02.011',-0.040,0.060
'18:02.014',-0.065,0.065
'18:02.017',-0.050,0.055
'18:02.019',-0.055,0.060
'18:02.022',-0.045,0.065
'18:02.025',-0.055,0.080
'18:02.028',-0.065,0.085
'18:02.031',-0.065,0.070
'18:02.033',-0.070,0.075
'18:02.036',-0.085,0.075
'18:02.039',-0.070,0.090
'18:02.042',-0.070,0.100
'18:02.044',-0.060,0.095
'18:02.047',-0.075,0.085
'18:02.050',-0.080,0.080
'18:02.053',-0.085,0.080
'18:02.056',-0.095,0.085
'18:02.058',-0.090,0.100
'18:02.061',-0.080,0.100
'18:02.064',-0.075,0.095
'18:02.067',-0.095,0.095
'18:02.069',-0.100,0.090
'18:02.072',-0.110,0.085
'18:02.075',-0.105,0.090
'18:02.078',-0.100,0.105
'18:02.081',-0.085,0.090
'18:02.083',-0.100,0.075
'18:02.086',-0.115,0.080
'18:02.089',-0.125,0.100
'18:02.092',-0.115,0.115
'18:02.094',-0.115,0.115
'18:02.097',-0.100,0.095
'18:02.100',-0.110,0.075
'18:02.103',-0.120,0.075
'18:02.106',-0.115,0.090
'18:02.108',-0.110,0.100
'18:02.111',-0.095,0.105
'18:02.114',-0.100,0.105
'18:02.117',-0.100,0.085
'18:02.119',-0.125,0.090
'18:02.122',-0.130,0.090
'18:02.125',-0.125,0.095
'18:02.128',-0.120,0.085
'18:02.131',-0.115,0.100
'18:02.133',-0.120,0.095
'18:02.136',-0.125,0.095
'18:02.139',-0.125,0.110
'18:02.142',-0.115,0.110
'18:02.144',-0.110,0.110
'18:02.147',-0.125,0.095
'18:02.150',-0.140,0.090
'18:02.153',-0.160,0.090
'18:02.156',-0.180,0.105
'18:02.158',-0.160,0.115
'18:02.161',-0.140,0.120
'18:02.164',-0.135,0.105
'18:02.167',-0.130,0.085
'18:02.169',-0.135,0.095
'18:02.172',-0.120,0.100
'18:02.175',-0.135,0.110
'18:02.178',-0.140,0.115
'18:02.181',-0.160,0.110
'18:02.183',-0.165,0.105
'18:02.186',-0.175,0.095
'18:02.189',-0.165,0.100
'18:02.192',-0.150,0.110
'18:02.194',-0.130,0.110
'18:02.197',-0.135,0.105
'18:02.200',-0.130,0.095
'18:02.203',-0.145,0.090
'18:02.206',-0.150,0.100
'18:02.208',-0.155,0.115
'18:02.211',-0.160,0.115
'18:02.214',-0.165,0.110
'18:02.217',-0.170,0.090
'18:02.219',-0.165,0.095
'18:02.222',-0.130,0.095
'18:02.225',-0.135,0.115
'18:02.228',-0.130,0.125
'18:02.231',-0.145,0.125
'18:02.233',-0.160,0.110
'18:02.236',-0.180,0.105
'18:02.239',-0.185,0.115
'18:02.242',-0.170,0.115
'18:02.244',-0.150,0.105
'18:02.247',-0.160,0.095
'18:02.250',-0.175,0.085
'18:02.253',-0.185,0.090
'18:02.256',-0.195,0.100
'18:02.258',-0.185,0.115
'18:02.261',-0.155,0.110
'18:02.264',-0.155,0.110
'18:02.267',-0.160,0.095
'18:02.269',-0.155,0.085
'18:02.272',-0.155,0.105
'18:02.275',-0.160,0.115
'18:02.278',-0.155,0.110
'18:02.281',-0.155,0.110
'18:02.283',-0.150,0.095
'18:02.286',-0.150,0.095
'18:02.289',-0.140,0.100
'18:02.292',-0.125,0.120
'18:02.294',-0.125,0.110
'18:02.297',-0.125,0.105
'18:02.300',-0.160,0.105
'18:02.303',-0.165,0.100
'18:02.306',-0.165,0.110
'18:02.308',-0.155,0.115
'18:02.311',-0.155,0.105
'18:02.314',-0.155,0.115
'18:02.317',-0.175,0.095
'18:02.319',-0.195,0.100
'18:02.322',-0.190,0.110
'18:02.325',-0.170,0.125
'18:02.328',-0.155,0.120
'18:02.331',-0.150,0.115
'18:02.333',-0.160,0.105
'18:02.336',-0.160,0.100
'18:02.339',-0.155,0.110
'18:02.342',-0.140,0.115
'18:02.344',-0.130,0.110
'18:02.347',-0.130,0.105
'18:02.350',-0.140,0.105
'18:02.353',-0.145,0.105
'18:02.356',-0.140,0.110
'18:02.358',-0.125,0.115
'18:02.361',-0.100,0.120
'18:02.364',-0.100,0.120
'18:02.367',-0.115,0.120
'18:02.369',-0.115,0.135
'18:02.372',-0.115,0.145
'18:02.375',-0.090,0.145
'18:02.378',-0.085,0.135
'18:02.381',-0.075,0.130
'18:02.383',-0.075,0.120
'18:02.386',-0.085,0.115
'18:02.389',-0.085,0.115
'18:02.392',-0.095,0.115
'18:02.394',-0.110,0.110
'18:02.397',-0.125,0.105
'18:02.400',-0.120,0.105
'18:02.403',-0.125,0.090
'18:02.406',-0.115,0.115
'18:02.408',-0.120,0.105
'18:02.411',-0.120,0.115
'18:02.414',-0.140,0.115
'18:02.417',-0.145,0.090
'18:02.419',-0.155,0.105
'18:02.422',-0.150,0.095
'18:02.425',-0.155,0.090
'18:02.428',-0.150,0.080
'18:02.431',-0.155,0.090
'18:02.433',-0.150,0.080
'18:02.436',-0.155,0.080
'18:02.439',-0.145,0.080
'18:02.442',-0.145,0.095
'18:02.444',-0.150,0.095
'18:02.447',-0.145,0.090
'18:02.450',-0.160,0.080
'18:02.453',-0.160,0.085
'18:02.456',-0.150,0.085
'18:02.458',-0.135,0.085
'18:02.461',-0.115,0.085
'18:02.464',-0.120,0.085
'18:02.467',-0.125,0.070
'18:02.469',-0.145,0.070
'18:02.472',-0.130,0.085
'18:02.475',-0.125,0.110
'18:02.478',-0.110,0.105
'18:02.481',-0.115,0.100
'18:02.483',-0.125,0.095
'18:02.486',-0.140,0.100
'18:02.489',-0.155,0.110
'18:02.492',-0.155,0.125
'18:02.494',-0.150,0.120
'18:02.497',-0.155,0.110
'18:02.500',-0.155,0.095
'18:02.503',-0.175,0.110
'18:02.506',-0.160,0.115
'18:02.508',-0.155,0.120
'18:02.511',-0.150,0.120
'18:02.514',-0.155,0.120
'18:02.517',-0.160,0.105
'18:02.519',-0.165,0.105
'18:02.522',-0.160,0.105
'18:02.525',-0.155,0.115
'18:02.528',-0.160,0.120
'18:02.531',-0.160,0.115
'18:02.533',-0.165,0.115
'18:02.536',-0.180,0.105
'18:02.539',-0.180,0.120
'18:02.542',-0.165,0.125
'18:02.544',-0.160,0.120
'18:02.547',-0.155,0.115
'18:02.550',-0.145,0.105
'18:02.553',-0.155,0.110
'18:02.556',-0.165,0.120
'18:02.558',-0.170,0.125
'18:02.561',-0.170,0.135
'18:02.564',-0.170,0.130
'18:02.567',-0.170,0.110
'18:02.569',-0.155,0.105
'18:02.572',-0.100,0.110
'18:02.575',-0.030,0.115
'18:02.578',0.040,0.115
'18:02.581',0.110,0.090
'18:02.583',0.170,0.060
'18:02.586',0.245,0.050
'18:02.589',0.330,0.040
'18:02.592',0.405,0.045
'18:02.594',0.480,0.035
'18:02.597',0.555,0.040
'18:02.600',0.650,0.005
'18:02.603',0.740,-0.020
'18:02.606',0.855,-0.040
'18:02.608',0.955,-0.070
'18:02.611',1.055,-0.125
'18:02.614',1.125,-0.165
'18:02.617',1.140,-0.220
'18:02.619',1.080,-0.250
'18:02.622',1.005,-0.255
'18:02.625',0.875,-0.250
'18:02.628',0.670,-0.250
'18:02.631',0.340,-0.220
'18:02.633',-0.040,-0.165
'18:02.636',-0.340,-0.115
'18:02.639',-0.500,-0.070
'18:02.642',-0.590,-0.035
'18:02.644',-0.640,-0.005
'18:02.647',-0.640,0.020
'18:02.650',-0.630,0.035
'18:02.653',-0.580,0.035
'18:02.656',-0.520,0.055
'18:02.658',-0.470,0.075
'18:02.661',-0.445,0.070
'18:02.664',-0.440,0.070
'18:02.667',-0.425,0.060
'18:02.669',-0.400,0.060
'18:02.672',-0.380,0.065
'18:02.675',-0.355,0.080
'18:02.678',-0.340,0.075
'18:02.681',-0.370,0.080
'18:02.683',-0.365,0.075
'18:02.686',-0.370,0.070
'18:02.689',-0.365,0.080
'18:02.692',-0.355,0.085
'18:02.694',-0.345,0.100
'18:02.697',-0.330,0.110
'18:02.700',-0.340,0.100
'18:02.703',-0.340,0.115
'18:02.706',-0.320,0.110
'18:02.708',-0.285,0.125
'18:02.711',-0.275,0.120
'18:02.714',-0.260,0.120
'18:02.717',-0.265,0.110
'18:02.719',-0.270,0.105
'18:02.722',-0.270,0.110
'18:02.725',-0.250,0.135
'18:02.728',-0.245,0.130
'18:02.731',-0.245,0.125
'18:02.733',-0.255,0.110
'18:02.736',-0.255,0.120
'18:02.739',-0.250,0.115
'18:02.742',-0.255,0.140
'18:02.744',-0.245,0.130
'18:02.747',-0.250,0.120
'18:02.750',-0.255,0.120
'18:02.753',-0.260,0.120
'18:02.756',-0.250,0.125
'18:02.758',-0.235,0.135
'18:02.761',-0.250,0.120
'18:02.764',-0.235,0.115
'18:02.767',-0.235,0.100
'18:02.769',-0.260,0.100
'18:02.772',-0.250,0.115
'18:02.775',-0.225,0.125
'18:02.778',-0.230,0.120
'18:02.781',-0.220,0.115
'18:02.783',-0.220,0.110
'18:02.786',-0.230,0.105
'18:02.789',-0.230,0.110
'18:02.792',-0.245,0.130
'18:02.794',-0.235,0.120
'18:02.797',-0.225,0.110
'18:02.800',-0.225,0.105
'18:02.803',-0.220,0.100
'18:02.806',-0.215,0.115
'18:02.808',-0.195,0.120
'18:02.811',-0.185,0.115
'18:02.814',-0.190,0.110
'18:02.817',-0.205,0.105
'18:02.819',-0.225,0.100
'18:02.822',-0.225,0.110
'18:02.825',-0.230,0.125
'18:02.828',-0.220,0.120
'18:02.831',-0.210,0.125
'18:02.833',-0.205,0.125
'18:02.836',-0.205,0.110
'18:02.839',-0.200,0.135
'18:02.842',-0.185,0.135
'18:02.844',-0.180,0.145
'18:02.847',-0.165,0.130
'18:02.850',-0.175,0.135
'18:02.853',-0.185,0.125
'18:02.856',-0.185,0.135
'18:02.858',-0.185,0.155
'18:02.861',-0.170,0.145
'18:02.864',-0.175,0.140
'18:02.867',-0.175,0.135
'18:02.869',-0.195,0.130
'18:02.872',-0.170,0.140
'18:02.875',-0.175,0.155
'18:02.878',-0.155,0.150
'18:02.881',-0.165,0.155
'18:02.883',-0.165,0.155
'18:02.886',-0.185,0.145
'18:02.889',-0.175,0.155
'18:02.892',-0.170,0.170
'18:02.894',-0.165,0.170
'18:02.897',-0.170,0.170
'18:02.900',-0.180,0.155
'18:02.903',-0.190,0.150
'18:02.906',-0.180,0.160
'18:02.908',-0.175,0.170
'18:02.911',-0.165,0.170
'18:02.914',-0.170,0.170
'18:02.917',-0.165,0.160
'18:02.919',-0.185,0.150
'18:02.922',-0.185,0.160
'18:02.925',-0.175,0.175
'18:02.928',-0.175,0.175
'18:02.931',-0.175,0.155
'18:02.933',-0.170,0.150
'18:02.936',-0.170,0.155
'18:02.939',-0.155,0.145
'18:02.942',-0.140,0.165
'18:02.944',-0.130,0.165
'18:02.947',-0.115,0.155
'18:02.950',-0.110,0.145
'18:02.953',-0.110,0.140
'18:02.956',-0.115,0.155
'18:02.958',-0.100,0.160
'18:02.961',-0.100,0.160
'18:02.964',-0.100,0.150
'18:02.967',-0.095,0.135
'18:02.969',-0.110,0.135
'18:02.972',-0.095,0.135
'18:02.975',-0.095,0.155
'18:02.978',-0.070,0.135
'18:02.981',-0.065,0.135
'18:02.983',-0.065,0.100
'18:02.986',-0.080,0.115
'18:02.989',-0.085,0.120
'18:02.992',-0.080,0.130
'18:02.994',-0.080,0.125
'18:02.997',-0.075,0.120
'18:03.000',-0.075,0.110
'18:03.003',-0.095,0.100
'18:03.006',-0.095,0.115
'18:03.008',-0.090,0.110
'18:03.011',-0.085,0.120
'18:03.014',-0.090,0.115
'18:03.017',-0.095,0.105
'18:03.019',-0.110,0.105
'18:03.022',-0.115,0.105
'18:03.025',-0.105,0.115
'18:03.028',-0.100,0.115
'18:03.031',-0.095,0.105
'18:03.033',-0.120,0.100
'18:03.036',-0.130,0.105
'18:03.039',-0.110,0.110
'18:03.042',-0.120,0.120
'18:03.044',-0.110,0.115
'18:03.047',-0.110,0.105
'18:03.050',-0.120,0.100
'18:03.053',-0.140,0.100
'18:03.056',-0.130,0.105
'18:03.058',-0.135,0.120
'18:03.061',-0.125,0.115
'18:03.064',-0.140,0.115
'18:03.067',-0.140,0.105
'18:03.069',-0.140,0.110
'18:03.072',-0.145,0.115
'18:03.075',-0.150,0.130
'18:03.078',-0.155,0.120
'18:03.081',-0.145,0.110
'18:03.083',-0.145,0.105
'18:03.086',-0.145,0.110
'18:03.089',-0.135,0.115
'18:03.092',-0.135,0.110
'18:03.094',-0.110,0.105
'18:03.097',-0.080,0.095
'18:03.100',-0.065,0.095
'18:03.103',-0.050,0.075
'18:03.106',-0.030,0.095
'18:03.108',-0.010,0.095
'18:03.111',0.015,0.085
'18:03.114',0.030,0.075
'18:03.117',0.035,0.045
'18:03.119',0.055,0.035
'18:03.122',0.055,0.030
'18:03.125',0.045,0.035
'18:03.128',0.050,0.020
'18:03.131',0.065,-0.005
'18:03.133',0.095,-0.025
'18:03.136',0.075,-0.030
'18:03.139',-0.005,-0.025
'18:03.142',-0.115,-0.020
'18:03.144',-0.305,0.000
'18:03.147',-0.630,0.025
'18:03.150',-1.090,0.060
'18:03.153',-1.530,0.140
'18:03.156',-1.870,0.240
'18:03.158',-2.100,0.330
'18:03.161',-2.180,0.385
'18:03.164',-2.185,0.435
'18:03.167',-2.180,0.450
'18:03.169',-2.160,0.465
'18:03.172',-2.090,0.490
'18:03.175',-1.975,0.515
'18:03.178',-1.850,0.525
'18:03.181',-1.760,0.540
'18:03.183',-1.665,0.530
'18:03.186',-1.595,0.565
'18:03.189',-1.505,0.625
'18:03.192',-1.385,0.665
'18:03.194',-1.250,0.685
'18:03.197',-1.130,0.705
'18:03.200',-1.045,0.710
'18:03.203',-0.995,0.720
'18:03.206',-0.945,0.730
'18:03.208',-0.875,0.745
'18:03.211',-0.785,0.720
'18:03.214',-0.700,0.690
'18:03.217',-0.630,0.655
'18:03.219',-0.595,0.625
'18:03.222',-0.540,0.610
'18:03.225',-0.475,0.595
'18:03.228',-0.400,0.555
'18:03.231',-0.325,0.485
'18:03.233',-0.255,0.425
'18:03.236',-0.160,0.390
'18:03.239',-0.060,0.335
'18:03.242',0.045,0.290
'18:03.244',0.115,0.220
'18:03.247',0.165,0.160
'18:03.250',0.210,0.095
'18:03.253',0.220,0.070
'18:03.256',0.245,0.045
'18:03.258',0.270,0.015
'18:03.261',0.300,-0.010
'18:03.264',0.320,-0.030
'18:03.267',0.315,-0.040
'18:03.269',0.320,-0.050
'18:03.272',0.345,-0.055
'18:03.275',0.360,-0.050
'18:03.278',0.390,-0.060
'18:03.281',0.405,-0.080
'18:03.283',0.415,-0.100
'18:03.286',0.420,-0.100
'18:03.289',0.420,-0.100
'18:03.292',0.465,-0.090
'18:03.294',0.490,-0.100
'18:03.297',0.500,-0.110
'18:03.300',0.500,-0.130
'18:03.303',0.500,-0.135
'18:03.306',0.535,-0.130
'18:03.308',0.565,-0.135
'18:03.311',0.590,-0.135
'18:03.314',0.595,-0.150
'18:03.317',0.600,-0.150
'18:03.319',0.615,-0.165
'18:03.322',0.635,-0.170
'18:03.325',0.660,-0.155
'18:03.328',0.690,-0.170
'18:03.331',0.695,-0.185
'18:03.333',0.700,-0.200
'18:03.336',0.700,-0.200
'18:03.339',0.715,-0.195
'18:03.342',0.745,-0.200
'18:03.344',0.760,-0.205
'18:03.347',0.770,-0.220
'18:03.350',0.770,-0.235
'18:03.353',0.765,-0.240
'18:03.356',0.785,-0.235
'18:03.358',0.800,-0.230
'18:03.361',0.800,-0.240
'18:03.364',0.810,-0.240
'18:03.367',0.815,-0.250
'18:03.369',0.800,-0.260
'18:03.372',0.800,-0.255
'18:03.375',0.810,-0.245
'18:03.378',0.805,-0.245
'18:03.381',0.810,-0.245
'18:03.383',0.785,-0.255
'18:03.386',0.760,-0.260
'18:03.389',0.755,-0.255
'18:03.392',0.765,-0.235
'18:03.394',0.760,-0.250
'18:03.397',0.735,-0.255
'18:03.400',0.710,-0.250
'18:03.403',0.680,-0.245
'18:03.406',0.670,-0.230
'18:03.408',0.665,-0.230
'18:03.411',0.645,-0.235
'18:03.414',0.630,-0.225
'18:03.417',0.595,-0.225
'18:03.419',0.560,-0.220
'18:03.422',0.540,-0.195
'18:03.425',0.500,-0.185
'18:03.428',0.490,-0.175
'18:03.431',0.455,-0.165
'18:03.433',0.415,-0.165
'18:03.436',0.395,-0.160
'18:03.439',0.380,-0.155
'18:03.442',0.360,-0.130
'18:03.444',0.360,-0.125
'18:03.447',0.335,-0.120
'18:03.450',0.300,-0.110
'18:03.453',0.265,-0.110
'18:03.456',0.240,-0.095
'18:03.458',0.230,-0.070
'18:03.461',0.220,-0.065
'18:03.464',0.200,-0.060
'18:03.467',0.185,-0.055
'18:03.469',0.160,-0.040
'18:03.472',0.140,-0.025
'18:03.475',0.130,-0.015
'18:03.478',0.140,-0.010
'18:03.481',0.125,0.005
'18:03.483',0.095,0.005
'18:03.486',0.050,0.020
'18:03.489',0.045,0.030
'18:03.492',0.055,0.040
'18:03.494',0.050,0.050
'18:03.497',0.045,0.050
'18:03.500',0.030,0.055
'18:03.503',0.020,0.045
'18:03.506',0.020,0.050
'18:03.508',0.030,0.080
'18:03.511',0.030,0.080
'18:03.514',0.015,0.085
'18:03.517',-0.005,0.075
'18:03.519',-0.045,0.075
'18:03.522',-0.075,0.090
'18:03.525',-0.060,0.105
'18:03.528',-0.030,0.095
'18:03.531',-0.015,0.090
'18:03.533',-0.020,0.090
'18:03.536',-0.030,0.090
'18:03.539',-0.020,0.100
'18:03.542',-0.010,0.105
'18:03.544',-0.005,0.085
'18:03.547',-0.005,0.095
'18:03.550',-0.025,0.085
'18:03.553',-0.050,0.075
'18:03.556',-0.045,0.085
'18:03.558',-0.065,0.100
'18:03.561',-0.055,0.095
'18:03.564',-0.065,0.100
'18:03.567',-0.055,0.090
'18:03.569',-0.065,0.070
'18:03.572',-0.055,0.080
'18:03.575',-0.035,0.100
'18:03.578',-0.030,0.105
'18:03.581',-0.035,0.090
'18:03.583',-0.065,0.085
'18:03.586',-0.075,0.080
'18:03.589',-0.075,0.100
'18:03.592',-0.065,0.100
'18:03.594',-0.060,0.110
'18:03.597',-0.065,0.100
'18:03.600',-0.080,0.085
'18:03.603',-0.100,0.080
'18:03.606',-0.095,0.100
'18:03.608',-0.090,0.105
'18:03.611',-0.075,0.105
'18:03.614',-0.070,0.095
'18:03.617',-0.085,0.080
'18:03.619',-0.095,0.085
'18:03.622',-0.095,0.090
'18:03.625',-0.100,0.105
'18:03.628',-0.105,0.110
'18:03.631',-0.095,0.100
'18:03.633',-0.100,0.085
'18:03.636',-0.110,0.085
'18:03.639',-0.115,0.095
'18:03.642',-0.120,0.090
'18:03.644',-0.115,0.100
'18:03.647',-0.120,0.085
'18:03.650',-0.140,0.085
'18:03.653',-0.145,0.085
'18:03.656',-0.135,0.090
'18:03.658',-0.110,0.100
'18:03.661',-0.105,0.110
'18:03.664',-0.105,0.105
'18:03.667',-0.100,0.100
'18:03.669',-0.105,0.085
'18:03.672',-0.110,0.085
'18:03.675',-0.100,0.110
'18:03.678',-0.110,0.110
'18:03.681',-0.100,0.105
'18:03.683',-0.120,0.100
'18:03.686',-0.130,0.095
'18:03.689',-0.125,0.090
'18:03.692',-0.120,0.100
'18:03.694',-0.125,0.105
'18:03.697',-0.125,0.105
'18:03.700',-0.125,0.095
'18:03.703',-0.130,0.090
'18:03.706',-0.125,0.090
'18:03.708',-0.120,0.095
'18:03.711',-0.120,0.095
'18:03.714',-0.125,0.100
'18:03.717',-0.130,0.090
'18:03.719',-0.130,0.085
'18:03.722',-0.135,0.100
'18:03.725',-0.130,0.100
'18:03.728',-0.115,0.110
'18:03.731',-0.130,0.100
'18:03.733',-0.130,0.095
'18:03.736',-0.150,0.080
'18:03.739',-0.135,0.095
'18:03.742',-0.135,0.100
'18:03.744',-0.135,0.100
'18:03.747',-0.145,0.090
'18:03.750',-0.140,0.080
'18:03.753',-0.135,0.085
'18:03.756',-0.145,0.085
'18:03.758',-0.140,0.100
'18:03.761',-0.125,0.090
'18:03.764',-0.140,0.100
'18:03.767',-0.140,0.090
'18:03.769',-0.160,0.090
'18:03.772',-0.155,0.095
'18:03.775',-0.155,0.100
'18:03.778',-0.140,0.105
'18:03.781',-0.125,0.095
'18:03.783',-0.125,0.085
'18:03.786',-0.115,0.090
'18:03.789',-0.100,0.090
'18:03.792',-0.090,0.110
'18:03.794',-0.090,0.095
'18:03.797',-0.100,0.095
'18:03.800',-0.100,0.090
'18:03.803',-0.125,0.100
'18:03.806',-0.120,0.110
'18:03.808',-0.115,0.100
'18:03.811',-0.105,0.105
'18:03.814',-0.105,0.095
'18:03.817',-0.100,0.085
'18:03.819',-0.125,0.095
'18:03.822',-0.120,0.100
'18:03.825',-0.130,0.120
'18:03.828',-0.120,0.100
'18:03.831',-0.120,0.100
'18:03.833',-0.115,0.090
'18:03.836',-0.130,0.095
'18:03.839',-0.120,0.110
'18:03.842',-0.110,0.105
'18:03.844',-0.080,0.105
'18:03.847',-0.095,0.105
'18:03.850',-0.100,0.090
'18:03.853',-0.110,0.095
'18:03.856',-0.095,0.105
'18:03.858',-0.085,0.115
'18:03.861',-0.065,0.110
'18:03.864',-0.075,0.110
'18:03.867',-0.070,0.105
'18:03.869',-0.075,0.110
'18:03.872',-0.075,0.120
'18:03.875',-0.055,0.110
'18:03.878',-0.045,0.100
'18:03.881',-0.045,0.105
'18:03.883',-0.065,0.095
'18:03.886',-0.100,0.080
'18:03.889',-0.110,0.090
'18:03.892',-0.110,0.100
'18:03.894',-0.120,0.100
'18:03.897',-0.130,0.095
'18:03.900',-0.145,0.075
'18:03.903',-0.155,0.075
'18:03.906',-0.135,0.080
'18:03.908',-0.110,0.085
'18:03.911',-0.120,0.085
'18:03.914',-0.125,0.060
'18:03.917',-0.120,0.055
'18:03.919',-0.115,0.050
'18:03.922',-0.100,0.060
'18:03.925',-0.105,0.065
'18:03.928',-0.085,0.070
'18:03.931',-0.080,0.045
'18:03.933',-0.085,0.055
'18:03.936',-0.105,0.055
'18:03.939',-0.090,0.060
'18:03.942',-0.075,0.075
'18:03.944',-0.060,0.065
'18:03.947',-0.055,0.075
'18:03.950',-0.070,0.050
'18:03.953',-0.095,0.060
'18:03.956',-0.105,0.080
'18:03.958',-0.100,0.100
'18:03.961',-0.110,0.080
'18:03.964',-0.110,0.090
'18:03.967',-0.135,0.085
'18:03.969',-0.135,0.090
'18:03.972',-0.140,0.090
'18:03.975',-0.135,0.100
'18:03.978',-0.130,0.110
'18:03.981',-0.125,0.105
'18:03.983',-0.145,0.100
'18:03.986',-0.150,0.085
'18:03.989',-0.135,0.105
'18:03.992',-0.125,0.105
'18:03.994',-0.115,0.100
'18:03.997',-0.125,0.095
'18:04.000',-0.130,0.085
'18:04.003',-0.130,0.090
'18:04.006',-0.130,0.105
'18:04.008',-0.145,0.105
'18:04.011',-0.155,0.120
'18:04.014',-0.180,0.100
'18:04.017',-0.195,0.085
'18:04.019',-0.180,0.085
'18:04.022',-0.105,0.090
'18:04.025',-0.015,0.085
'18:04.028',0.065,0.090
'18:04.031',0.160,0.055
'18:04.033',0.250,0.030
'18:04.036',0.360,0.025
'18:04.039',0.505,0.015
'18:04.042',0.645,0.000
'18:04.044',0.785,-0.030
'18:04.047',0.890,-0.065
'18:04.050',1.010,-0.135
'18:04.053',1.080,-0.210
'18:04.056',1.130,-0.275
'18:04.058',1.090,-0.305
'18:04.061',0.970,-0.340
'18:04.064',0.780,-0.350
'18:04.067',0.485,-0.335
'18:04.069',0.120,-0.265
'18:04.072',-0.175,-0.180
'18:04.075',-0.350,-0.115
'18:04.078',-0.445,-0.095
'18:04.081',-0.470,-0.050
'18:04.083',-0.445,-0.045
'18:04.086',-0.390,-0.025
'18:04.089',-0.320,0.005
'18:04.092',-0.295,0.020
'18:04.094',-0.295,0.010
'18:04.097',-0.290,0.010
'18:04.100',-0.285,0.015
'18:04.103',-0.305,0.020
'18:04.106',-0.310,0.040
'18:04.108',-0.310,0.075
'18:04.111',-0.315,0.080
'18:04.114',-0.310,0.065
'18:04.117',-0.305,0.060
'18:04.119',-0.320,0.080
'18:04.122',-0.305,0.095
'18:04.125',-0.305,0.105
'18:04.128',-0.265,0.100
'18:04.131',-0.250,0.100
'18:04.133',-0.235,0.080
'18:04.136',-0.235,0.090
'18:04.139',-0.235,0.105
'18:04.142',-0.240,0.110
'18:04.144',-0.235,0.115
'18:04.147',-0.235,0.110
'18:04.150',-0.240,0.110
'18:04.153',-0.255,0.100
'18:04.156',-0.260,0.100
'18:04.158',-0.260,0.110
'18:04.161',-0.225,0.105
'18:04.164',-0.215,0.105
'18:04.167',-0.220,0.095
'18:04.169',-0.230,0.095
'18:04.172',-0.220,0.110
'18:04.175',-0.220,0.115
'18:04.178',-0.195,0.120
'18:04.181',-0.195,0.115
'18:04.183',-0.200,0.085
'18:04.186',-0.200,0.085
'18:04.189',-0.200,0.090
'18:04.192',-0.200,0.115
'18:04.194',-0.190,0.100
'18:04.197',-0.185,0.100
'18:04.200',-0.185,0.090
'18:04.203',-0.190,0.085
'18:04.206',-0.185,0.100
'18:04.208',-0.180,0.110
'18:04.211',-0.170,0.110
'18:04.214',-0.190,0.110
'18:04.217',-0.175,0.095
'18:04.219',-0.190,0.085
'18:04.222',-0.190,0.105
'18:04.225',-0.190,0.110
'18:04.228',-0.175,0.105
'18:04.231',-0.175,0.100
'18:04.233',-0.195,0.090
'18:04.236',-0.200,0.095
'18:04.239',-0.185,0.105
'18:04.242',-0.180,0.120
'18:04.244',-0.175,0.120
'18:04.247',-0.180,0.115
'18:04.250',-0.180,0.110
'18:04.253',-0.190,0.105
'18:04.256',-0.175,0.120
'18:04.258',-0.180,0.120
'18:04.261',-0.165,0.130
'18:04.264',-0.170,0.130
'18:04.267',-0.160,0.130
'18:04.269',-0.170,0.125
'18:04.272',-0.170,0.120
'18:04.275',-0.155,0.135
'18:04.278',-0.155,0.135
'18:04.281',-0.160,0.150
'18:04.283',-0.170,0.140
'18:04.286',-0.165,0.140
'18:04.289',-0.170,0.140
'18:04.292',-0.155,0.145
'18:04.294',-0.145,0.145
'18:04.297',-0.150,0.145
'18:04.300',-0.160,0.130
'18:04.303',-0.150,0.140
'18:04.306',-0.145,0.150
'18:04.308',-0.150,0.160
'18:04.311',-0.155,0.155
'18:04.314',-0.145,0.145
'18:04.317',-0.150,0.145
'18:04.319',-0.150,0.135
'18:04.322',-0.135,0.145
'18:04.325',-0.125,0.160
'18:04.328',-0.105,0.145
'18:04.331',-0.095,0.145
'18:04.333',-0.100,0.135
'18:04.336',-0.105,0.135
'18:04.339',-0.095,0.140
'18:04.342',-0.085,0.145
'18:04.344',-0.065,0.125
'18:04.347',-0.065,0.120
'18:04.350',-0.070,0.110
'18:04.353',-0.080,0.120
'18:04.356',-0.065,0.120
'18:04.358',-0.065,0.140
'18:04.361',-0.045,0.140
'18:04.364',-0.045,0.125
'18:04.367',-0.045,0.115
'18:04.369',-0.055,0.110
'18:04.372',-0.050,0.120
'18:04.375',-0.050,0.120
'18:04.378',-0.035,0.115
'18:04.381',-0.040,0.110
'18:04.383',-0.060,0.105
'18:04.386',-0.060,0.100
'18:04.389',-0.070,0.105
'18:04.392',-0.060,0.110
'18:04.394',-0.045,0.110
'18:04.397',-0.040,0.095
'18:04.400',-0.045,0.085
'18:04.403',-0.060,0.085
'18:04.406',-0.060,0.095
'18:04.408',-0.065,0.115
'18:04.411',-0.050,0.100
'18:04.414',-0.060,0.100
'18:04.417',-0.075,0.085
'18:04.419',-0.090,0.075
'18:04.422',-0.075,0.075
'18:04.425',-0.080,0.095
'18:04.428',-0.075,0.095
'18:04.431',-0.070,0.100
'18:04.433',-0.090,0.095
'18:04.436',-0.105,0.075
'18:04.439',-0.115,0.090
'18:04.442',-0.100,0.110
'18:04.444',-0.095,0.110
'18:04.447',-0.090,0.105
'18:04.450',-0.105,0.085
'18:04.453',-0.115,0.085
'18:04.456',-0.115,0.105
'18:04.458',-0.125,0.110
'18:04.461',-0.125,0.115
'18:04.464',-0.130,0.120
'18:04.467',-0.130,0.105
'18:04.469',-0.135,0.095
'18:04.472',-0.125,0.105
'18:04.475',-0.130,0.120
'18:04.478',-0.130,0.115
'18:04.481',-0.120,0.120
'18:04.483',-0.125,0.115
'18:04.486',-0.135,0.105
'18:04.489',-0.140,0.115
'18:04.492',-0.135,0.120
'18:04.494',-0.150,0.125
'18:04.497',-0.145,0.110
'18:04.500',-0.140,0.105
'18:04.503',-0.140,0.095
'18:04.506',-0.120,0.100
'18:04.508',-0.095,0.105
'18:04.511',-0.070,0.100
'18:04.514',-0.085,0.090
'18:04.517',-0.095,0.075
'18:04.519',-0.110,0.065
'18:04.522',-0.070,0.070
'18:04.525',-0.050,0.065
'18:04.528',-0.025,0.050
'18:04.531',-0.020,0.035
'18:04.533',-0.020,0.000
'18:04.536',-0.015,0.005
'18:04.539',0.005,0.000
'18:04.542',0.035,0.005
'18:04.544',0.035,0.005
'18:04.547',0.060,-0.005
'18:04.550',0.090,-0.005
'18:04.553',0.105,-0.015
'18:04.556',0.125,-0.005
'18:04.558',0.090,0.010
'18:04.561',0.060,0.020
'18:04.564',0.035,0.050
'18:04.567',-0.005,0.050
'18:04.569',-0.085,0.105
'18:04.572',-0.235,0.180
'18:04.575',-0.490,0.270
'18:04.578',-0.870,0.380
'18:04.581',-1.305,0.460
'18:04.583',-1.640,0.550
'18:04.586',-1.875,0.620
'18:04.589',-1.970,0.700
'18:04.592',-1.965,0.750
'18:04.594',-1.965,0.775
'18:04.597',-1.970,0.785
'18:04.600',-1.935,0.775
'18:04.603',-1.900,0.770
'18:04.606',-1.865,0.800
'18:04.608',-1.825,0.800
'18:04.611',-1.775,0.805
'18:04.614',-1.695,0.780
'18:04.617',-1.570,0.760
'18:04.619',-1.475,0.740
'18:04.622',-1.385,0.740
'18:04.625',-1.320,0.745
'18:04.628',-1.265,0.750
'18:04.631',-1.185,0.760
'18:04.633',-1.075,0.740
'18:04.636',-1.000,0.730
'18:04.639',-0.935,0.725
'18:04.642',-0.885,0.745
'18:04.644',-0.850,0.740
'18:04.647',-0.795,0.720
'18:04.650',-0.735,0.690
'18:04.653',-0.660,0.665
'18:04.656',-0.580,0.620
'18:04.658',-0.520,0.595
'18:04.661',-0.500,0.580
'18:04.664',-0.480,0.580
'18:04.667',-0.450,0.550
'18:04.669',-0.420,0.525
'18:04.672',-0.380,0.470
'18:04.675',-0.315,0.440
'18:04.678',-0.265,0.395
'18:04.681',-0.195,0.355
'18:04.683',-0.145,0.275
'18:04.686',-0.075,0.205
'18:04.689',-0.015,0.150
'18:04.692',0.040,0.095
'18:04.694',0.100,0.035
'18:04.697',0.135,0.005
'18:04.700',0.150,-0.045
'18:04.703',0.165,-0.080
'18:04.706',0.185,-0.110
'18:04.708',0.220,-0.105
'18:04.711',0.210,-0.105
'18:04.714',0.230,-0.120
'18:04.717',0.235,-0.145
'18:04.719',0.240,-0.150
'18:04.722',0.255,-0.160
'18:04.725',0.260,-0.155
'18:04.728',0.280,-0.165
'18:04.731',0.295,-0.180
'18:04.733',0.300,-0.185
'18:04.736',0.305,-0.200
'18:04.739',0.330,-0.215
'18:04.742',0.355,-0.210
'18:04.744',0.380,-0.205
'18:04.747',0.380,-0.220
'18:04.750',0.410,-0.245
'18:04.753',0.410,-0.250
'18:04.756',0.430,-0.250
'18:04.758',0.430,-0.250
'18:04.761',0.455,-0.265
'18:04.764',0.485,-0.280
'18:04.767',0.480,-0.295
'18:04.769',0.505,-0.300
'18:04.772',0.520,-0.300
'18:04.775',0.535,-0.305
'18:04.778',0.555,-0.310
'18:04.781',0.560,-0.305
'18:04.783',0.575,-0.335
'18:04.786',0.560,-0.345
'18:04.789',0.585,-0.335
'18:04.792',0.605,-0.330
'18:04.794',0.635,-0.345
'18:04.797',0.650,-0.360
'18:04.800',0.645,-0.365
'18:04.803',0.640,-0.365
'18:04.806',0.625,-0.365
'18:04.808',0.635,-0.355
'18:04.811',0.650,-0.345
'18:04.814',0.650,-0.365
'18:04.817',0.660,-0.385
'18:04.819',0.650,-0.380
'18:04.822',0.640,-0.360
'18:04.825',0.630,-0.340
'18:04.828',0.620,-0.355
'18:04.831',0.615,-0.355
'18:04.833',0.605,-0.350
'18:04.836',0.590,-0.345
'18:04.839',0.585,-0.345
'18:04.842',0.570,-0.325
'18:04.844',0.555,-0.315
'18:04.847',0.535,-0.295
'18:04.850',0.500,-0.285
'18:04.853',0.465,-0.280
'18:04.856',0.445,-0.250
'18:04.858',0.430,-0.215
'18:04.861',0.415,-0.215
'18:04.864',0.395,-0.220
'18:04.867',0.360,-0.245
'18:04.869',0.320,-0.245
'18:04.872',0.280,-0.225
'18:04.875',0.265,-0.195
'18:04.878',0.255,-0.175
'18:04.881',0.240,-0.155
'18:04.883',0.225,-0.150
'18:04.886',0.175,-0.135
'18:04.889',0.140,-0.130
'18:04.892',0.125,-0.105
'18:04.894',0.115,-0.095
'18:04.897',0.100,-0.070
'18:04.900',0.085,-0.060
'18:04.903',0.060,-0.050
'18:04.906',0.040,-0.025
'18:04.908',0.030,-0.010
'18:04.911',0.025,0.010
'18:04.914',0.015,0.010
'18:04.917',-0.015,0.015
'18:04.919',-0.035,0.025
'18:04.922',-0.055,0.020
'18:04.925',-0.050,0.055
'18:04.928',-0.060,0.055
'18:04.931',-0.065,0.065
'18:04.933',-0.060,0.055
'18:04.936',-0.065,0.050
'18:04.939',-0.060,0.070
'18:04.942',-0.065,0.085
'18:04.944',-0.065,0.085
'18:04.947',-0.080,0.080
'18:04.950',-0.090,0.075
'18:04.953',-0.120,0.065
'18:04.956',-0.100,0.080
'18:04.958',-0.095,0.090
'18:04.961',-0.100,0.095
'18:04.964',-0.110,0.090
'18:04.967',-0.120,0.080
'18:04.969',-0.120,0.090
'18:04.972',-0.110,0.085
'18:04.975',-0.110,0.105
'18:04.978',-0.120,0.110
'18:04.981',-0.110,0.100
'18:04.983',-0.120,0.090
'18:04.986',-0.130,0.085
'18:04.989',-0.130,0.085
'18:04.992',-0.130,0.100
'18:04.994',-0.125,0.100
'18:04.997',-0.130,0.095
'18:05.000',-0.130,0.080
'18:05.003',-0.140,0.080
'18:05.006',-0.135,0.085
'18:05.008',-0.150,0.095
'18:05.011',-0.130,0.110
'18:05.014',-0.135,0.105
'18:05.017',-0.140,0.100
'18:05.019',-0.165,0.090
'18:05.022',-0.155,0.105
'18:05.025',-0.165,0.105
'18:05.028',-0.145,0.110
'18:05.031',-0.135,0.105
'18:05.033',-0.150,0.110
'18:05.036',-0.155,0.105
'18:05.039',-0.180,0.105
'18:05.042',-0.185,0.110
'18:05.044',-0.190,0.120
'18:05.047',-0.180,0.105
'18:05.050',-0.170,0.090
'18:05.053',-0.175,0.095
'18:05.056',-0.180,0.110
'18:05.058',-0.170,0.110
'18:05.061',-0.160,0.110
'18:05.064',-0.160,0.110
'18:05.067',-0.170,0.100
'18:05.069',-0.180,0.095
'18:05.072',-0.195,0.100
'18:05.075',-0.185,0.115
'18:05.078',-0.195,0.115
'18:05.081',-0.175,0.110
'18:05.083',-0.195,0.100
'18:05.086',-0.200,0.100
'18:05.089',-0.190,0.090
'18:05.092',-0.175,0.115
'18:05.094',-0.160,0.130
'18:05.097',-0.175,0.115
'18:05.100',-0.175,0.100
'18:05.103',-0.190,0.105
'18:05.106',-0.190,0.125
'18:05.108',-0.190,0.130
'18:05.111',-0.185,0.115
'18:05.114',-0.195,0.120
'18:05.117',-0.205,0.120
'18:05.119',-0.195,0.120
'18:05.122',-0.190,0.110
'18:05.125',-0.205,0.120
'18:05.128',-0.190,0.120
'18:05.131',-0.185,0.120
'18:05.133',-0.200,0.120
'18:05.136',-0.205,0.115
'18:05.139',-0.190,0.115
'18:05.142',-0.185,0.115
'18:05.144',-0.180,0.110
'18:05.147',-0.180,0.110
'18:05.150',-0.190,0.115
'18:05.153',-0.205,0.110
'18:05.156',-0.205,0.120
'18:05.158',-0.195,0.125
'18:05.161',-0.190,0.125
'18:05.164',-0.180,0.130
'18:05.167',-0.180,0.120
'18:05.169',-0.190,0.120
'18:05.172',-0.200,0.125
'18:05.175',-0.190,0.135
'18:05.178',-0.200,0.130
'18:05.181',-0.210,0.130
'18:05.183',-0.215,0.120
'18:05.186',-0.210,0.120
'18:05.189',-0.200,0.120
'18:05.192',-0.195,0.130
'18:05.194',-0.185,0.130
'18:05.197',-0.200,0.135
'18:05.200',-0.200,0.135
'18:05.203',-0.210,0.125
'18:05.206',-0.190,0.130
'18:05.208',-0.185,0.130
'18:05.211',-0.175,0.135
'18:05.214',-0.175,0.120
'18:05.217',-0.180,0.120
'18:05.219',-0.190,0.125
'18:05.222',-0.185,0.130
'18:05.225',-0.175,0.135
'18:05.228',-0.165,0.130
'18:05.231',-0.170,0.120
'18:05.233',-0.170,0.115
'18:05.236',-0.185,0.130
'18:05.239',-0.180,0.135
'18:05.242',-0.165,0.145
'18:05.244',-0.160,0.145
'18:05.247',-0.150,0.140
'18:05.250',-0.160,0.145
'18:05.253',-0.170,0.155
'18:05.256',-0.150,0.140
'18:05.258',-0.130,0.145
'18:05.261',-0.115,0.130
'18:05.264',-0.105,0.125
'18:05.267',-0.130,0.110
'18:05.269',-0.150,0.095
'18:05.272',-0.150,0.115
'18:05.275',-0.160,0.130
'18:05.278',-0.165,0.120
'18:05.281',-0.180,0.115
'18:05.283',-0.175,0.115
'18:05.286',-0.185,0.115
'18:05.289',-0.175,0.115
'18:05.292',-0.145,0.120
'18:05.294',-0.150,0.110
'18:05.297',-0.160,0.115
'18:05.300',-0.160,0.115
'18:05.303',-0.180,0.100
'18:05.306',-0.180,0.105
'18:05.308',-0.195,0.105
'18:05.311',-0.180,0.100
'18:05.314',-0.170,0.105
'18:05.317',-0.160,0.090
'18:05.319',-0.170,0.080
'18:05.322',-0.165,0.095
'18:05.325',-0.160,0.100
'18:05.328',-0.150,0.105
'18:05.331',-0.170,0.105
'18:05.333',-0.170,0.110
'18:05.336',-0.185,0.100
'18:05.339',-0.185,0.110
'18:05.342',-0.180,0.125
'18:05.344',-0.175,0.130
'18:05.347',-0.180,0.130
'18:05.350',-0.200,0.110
'18:05.353',-0.210,0.120
'18:05.356',-0.205,0.135
'18:05.358',-0.195,0.140
'18:05.361',-0.200,0.135
'18:05.364',-0.205,0.125
'18:05.367',-0.220,0.115
'18:05.369',-0.230,0.095
'18:05.372',-0.220,0.120
'18:05.375',-0.210,0.135
'18:05.378',-0.190,0.130
'18:05.381',-0.185,0.125
'18:05.383',-0.175,0.105
'18:05.386',-0.205,0.110
'18:05.389',-0.190,0.115
'18:05.392',-0.185,0.130
'18:05.394',-0.170,0.125
'18:05.397',-0.170,0.115
'18:05.400',-0.175,0.120
'18:05.403',-0.200,0.105
'18:05.406',-0.215,0.110
'18:05.408',-0.230,0.120
'18:05.411',-0.205,0.130
'18:05.414',-0.175,0.135
'18:05.417',-0.120,0.115
'18:05.419',-0.060,0.085
'18:05.422',0.040,0.080
'18:05.425',0.130,0.065
'18:05.428',0.230,0.055
'18:05.431',0.320,0.040
'18:05.433',0.380,0.015
'18:05.436',0.470,0.020
'18:05.439',0.575,0.015
'18:05.442',0.685,0.005
'18:05.444',0.815,-0.025
'18:05.447',0.925,-0.065
'18:05.450',1.015,-0.120
'18:05.453',1.090,-0.195
'18:05.456',1.110,-0.230
'18:05.458',1.050,-0.240
'18:05.461',0.945,-0.255
'18:05.464',0.775,-0.270
'18:05.467',0.485,-0.265
'18:05.469',0.090,-0.205
'18:05.472',-0.280,-0.125
'18:05.475',-0.510,-0.075
'18:05.478',-0.620,-0.050
'18:05.481',-0.675,-0.015
'18:05.483',-0.705,0.000
'18:05.486',-0.690,0.035
'18:05.489',-0.610,0.060
'18:05.492',-0.545,0.065
'18:05.494',-0.490,0.060
'18:05.497',-0.500,0.050
'18:05.500',-0.485,0.055
'18:05.503',-0.480,0.050
'18:05.506',-0.440,0.070
'18:05.508',-0.410,0.075
'18:05.511',-0.420,0.065
'18:05.514',-0.415,0.060
'18:05.517',-0.425,0.055
'18:05.519',-0.425,0.055
'18:05.522',-0.410,0.075
'18:05.525',-0.375,0.095
'18:05.528',-0.345,0.095
'18:05.531',-0.330,0.105
'18:05.533',-0.315,0.110
'18:05.536',-0.310,0.095
'18:05.539',-0.290,0.100
'18:05.542',-0.275,0.105
'18:05.544',-0.255,0.100
'18:05.547',-0.255,0.095
'18:05.550',-0.270,0.100
'18:05.553',-0.270,0.110
'18:05.556',-0.280,0.125
'18:05.558',-0.275,0.140
'18:05.561',-0.260,0.125
'18:05.564',-0.250,0.115
'18:05.567',-0.245,0.085
'18:05.569',-0.260,0.085
'18:05.572',-0.260,0.100
'18:05.575',-0.260,0.135
'18:05.578',-0.250,0.130
'18:05.581',-0.255,0.125
'18:05.583',-0.240,0.080
'18:05.586',-0.260,0.065
'18:05.589',-0.250,0.070
'18:05.592',-0.240,0.080
'18:05.594',-0.225,0.110
'18:05.597',-0.240,0.095
'18:05.600',-0.235,0.085
'18:05.603',-0.250,0.080
'18:05.606',-0.250,0.075
'18:05.608',-0.250,0.080
'18:05.611',-0.230,0.085
'18:05.614',-0.235,0.080
'18:05.617',-0.245,0.080
'18:05.619',-0.240,0.075
'18:05.622',-0.240,0.085
'18:05.625',-0.230,0.085
'18:05.628',-0.225,0.080
'18:05.631',-0.230,0.090
'18:05.633',-0.225,0.075
'18:05.636',-0.235,0.075
'18:05.639',-0.240,0.065
'18:05.642',-0.225,0.090
'18:05.644',-0.210,0.105
'18:05.647',-0.205,0.080
'18:05.650',-0.215,0.090
'18:05.653',-0.235,0.090
'18:05.656',-0.225,0.095
'18:05.658',-0.220,0.110
'18:05.661',-0.225,0.105
'18:05.664',-0.200,0.115
'18:05.667',-0.215,0.105
'18:05.669',-0.220,0.095
'18:05.672',-0.230,0.090
'18:05.675',-0.215,0.105
'18:05.678',-0.215,0.105
'18:05.681',-0.205,0.110
'18:05.683',-0.210,0.110
'18:05.686',-0.220,0.105
'18:05.689',-0.220,0.115
'18:05.692',-0.220,0.130
'18:05.694',-0.205,0.135
'18:05.697',-0.225,0.140
'18:05.700',-0.220,0.125
'18:05.703',-0.230,0.115
'18:05.706',-0.225,0.125
'18:05.708',-0.220,0.135
'18:05.711',-0.225,0.145
'18:05.714',-0.235,0.140
'18:05.717',-0.220,0.120
'18:05.719',-0.225,0.120
'18:05.722',-0.215,0.145
'18:05.725',-0.205,0.155
'18:05.728',-0.210,0.145
'18:05.731',-0.205,0.130
'18:05.733',-0.195,0.135
'18:05.736',-0.215,0.125
'18:05.739',-0.205,0.125
'18:05.742',-0.200,0.150
'18:05.744',-0.185,0.140
'18:05.747',-0.180,0.140
'18:05.750',-0.190,0.125
'18:05.753',-0.185,0.110
'18:05.756',-0.170,0.120
'18:05.758',-0.150,0.120
'18:05.761',-0.140,0.135
'18:05.764',-0.130,0.130
'18:05.767',-0.140,0.130
'18:05.769',-0.140,0.115
'18:05.772',-0.135,0.130
'18:05.775',-0.125,0.125
'18:05.778',-0.120,0.130
'18:05.781',-0.120,0.115
'18:05.783',-0.115,0.095
'18:05.786',-0.120,0.085
'18:05.789',-0.115,0.080
'18:05.792',-0.110,0.100
'18:05.794',-0.110,0.110
'18:05.797',-0.105,0.105
'18:05.800',-0.110,0.085
'18:05.803',-0.115,0.070
'18:05.806',-0.125,0.085
'18:05.808',-0.130,0.110
'18:05.811',-0.125,0.110
'18:05.814',-0.120,0.090
'18:05.817',-0.120,0.095
'18:05.819',-0.135,0.095
'18:05.822',-0.145,0.105
'18:05.825',-0.145,0.120
'18:05.828',-0.140,0.115
'18:05.831',-0.155,0.100
'18:05.833',-0.155,0.080
'18:05.836',-0.175,0.075
'18:05.839',-0.170,0.095
'18:05.842',-0.170,0.095
'18:05.844',-0.165,0.115
'18:05.847',-0.175,0.105
'18:05.850',-0.160,0.085
'18:05.853',-0.180,0.095
'18:05.856',-0.195,0.090
'18:05.858',-0.175,0.095
'18:05.861',-0.170,0.110
'18:05.864',-0.170,0.105
'18:05.867',-0.180,0.105
'18:05.869',-0.185,0.085
'18:05.872',-0.185,0.105
'18:05.875',-0.185,0.115
'18:05.878',-0.170,0.105
'18:05.881',-0.170,0.105
'18:05.883',-0.180,0.095
'18:05.886',-0.175,0.085
'18:05.889',-0.170,0.095
'18:05.892',-0.145,0.100
'18:05.894',-0.110,0.095
'18:05.897',-0.085,0.080
'18:05.900',-0.065,0.075
'18:05.903',-0.060,0.065
'18:05.906',-0.045,0.080
'18:05.908',-0.010,0.085
'18:05.911',0.010,0.070
'18:05.914',0.035,0.045
'18:05.917',0.025,0.030
'18:05.919',-0.005,0.010
'18:05.922',0.000,0.020
'18:05.925',0.035,0.020
'18:05.928',0.085,0.005
'18:05.931',0.095,-0.020
'18:05.933',0.040,-0.040
'18:05.936',-0.095,-0.045
'18:05.939',-0.305,-0.015
'18:05.942',-0.600,0.010
'18:05.944',-1.000,0.055
'18:05.947',-1.395,0.115
'18:05.950',-1.745,0.180
'18:05.953',-2.040,0.260
'18:05.956',-2.200,0.340
'18:05.958',-2.250,0.385
'18:05.961',-2.230,0.440
'18:05.964',-2.205,0.465
'18:05.967',-2.175,0.475
'18:05.969',-2.100,0.485
'18:05.972',-2.000,0.510
'18:05.975',-1.900,0.530
'18:05.978',-1.775,0.545
'18:05.981',-1.690,0.565
'18:05.983',-1.600,0.580
'18:05.986',-1.515,0.610
'18:05.989',-1.375,0.650
'18:05.992',-1.250,0.690
'18:05.994',-1.160,0.700
'18:05.997',-1.080,0.710
'18:06.000',-1.025,0.700
'18:06.003',-0.985,0.700
'18:06.006',-0.925,0.720
'18:06.008',-0.850,0.710
'18:06.011',-0.755,0.690
'18:06.014',-0.695,0.665
'18:06.017',-0.650,0.625
'18:06.019',-0.640,0.615
'18:06.022',-0.585,0.595
'18:06.025',-0.520,0.585
'18:06.028',-0.455,0.545
'18:06.031',-0.385,0.495
'18:06.033',-0.305,0.440
'18:06.036',-0.230,0.390
'18:06.039',-0.125,0.350
'18:06.042',-0.040,0.310
'18:06.044',0.045,0.250
'18:06.047',0.095,0.190
'18:06.050',0.145,0.130
'18:06.053',0.175,0.090
'18:06.056',0.190,0.075
'18:06.058',0.210,0.065
'18:06.061',0.220,0.035
'18:06.064',0.235,0.015
'18:06.067',0.260,-0.015
'18:06.069',0.265,-0.015
'18:06.072',0.280,-0.020
'18:06.075',0.280,-0.015
'18:06.078',0.315,-0.025
'18:06.081',0.335,-0.035
'18:06.083',0.335,-0.050
'18:06.086',0.330,-0.060
'18:06.089',0.360,-0.060
'18:06.092',0.365,-0.055
'18:06.094',0.385,-0.050
'18:06.097',0.415,-0.070
'18:06.100',0.430,-0.085
'18:06.103',0.430,-0.095
'18:06.106',0.450,-0.085
'18:06.108',0.465,-0.095
'18:06.111',0.500,-0.080
'18:06.114',0.515,-0.090
'18:06.117',0.525,-0.120
'18:06.119',0.540,-0.125
'18:06.122',0.560,-0.125
'18:06.125',0.580,-0.120
'18:06.128',0.600,-0.115
'18:06.131',0.595,-0.140
'18:06.133',0.615,-0.150
'18:06.136',0.615,-0.155
'18:06.139',0.635,-0.165
'18:06.142',0.660,-0.150
'18:06.144',0.665,-0.150
'18:06.147',0.685,-0.160
'18:06.150',0.690,-0.175
'18:06.153',0.695,-0.185
'18:06.156',0.705,-0.190
'18:06.158',0.730,-0.175
'18:06.161',0.745,-0.190
'18:06.164',0.750,-0.195
'18:06.167',0.735,-0.200
'18:06.169',0.740,-0.200
'18:06.172',0.750,-0.200
'18:06.175',0.770,-0.200
'18:06.178',0.775,-0.205
'18:06.181',0.775,-0.215
'18:06.183',0.770,-0.225
'18:06.186',0.760,-0.215
'18:06.189',0.750,-0.215
'18:06.192',0.760,-0.220
'18:06.194',0.765,-0.210
'18:06.197',0.755,-0.220
'18:06.200',0.730,-0.220
'18:06.203',0.705,-0.220
'18:06.206',0.700,-0.210
'18:06.208',0.695,-0.210
'18:06.211',0.690,-0.205
'18:06.214',0.680,-0.210
'18:06.217',0.665,-0.215
'18:06.219',0.635,-0.195
'18:06.222',0.625,-0.195
'18:06.225',0.605,-0.175
'18:06.228',0.595,-0.185
'18:06.231',0.565,-0.170
'18:06.233',0.540,-0.175
'18:06.236',0.505,-0.170
'18:06.239',0.475,-0.155
'18:06.242',0.465,-0.135
'18:06.244',0.440,-0.130
'18:06.247',0.410,-0.140
'18:06.250',0.395,-0.135
'18:06.253',0.355,-0.130
'18:06.256',0.345,-0.120
'18:06.258',0.325,-0.100
'18:06.261',0.305,-0.080
'18:06.264',0.280,-0.080
'18:06.267',0.245,-0.080
'18:06.269',0.220,-0.070
'18:06.272',0.210,-0.060
'18:06.275',0.195,-0.040
'18:06.278',0.185,-0.010
'18:06.281',0.165,-0.010
'18:06.283',0.150,-0.015
'18:06.286',0.110,-0.010
'18:06.289',0.100,0.010
'18:06.292',0.085,0.030
'18:06.294',0.080,0.035
'18:06.297',0.060,0.045
'18:06.300',0.045,0.045
'18:06.303',0.035,0.045
'18:06.306',0.035,0.055
'18:06.308',0.020,0.075
'18:06.311',0.015,0.095
'18:06.314',0.010,0.085
'18:06.317',-0.010,0.090
'18:06.319',-0.025,0.090
'18:06.322',-0.025,0.095
'18:06.325',-0.040,0.115
'18:06.328',-0.040,0.125
'18:06.331',-0.040,0.140
'18:06.333',-0.060,0.125
'18:06.336',-0.060,0.125
'18:06.339',-0.055,0.135
'18:06.342',-0.045,0.140
'18:06.344',-0.040,0.140
'18:06.347',-0.050,0.145
'18:06.350',-0.055,0.135
'18:06.353',-0.070,0.130
'18:06.356',-0.070,0.140
'18:06.358',-0.065,0.140
'18:06.361',-0.055,0.145
'18:06.364',-0.060,0.150
'18:06.367',-0.075,0.145
'18:06.369',-0.090,0.135
'18:06.372',-0.095,0.140
'18:06.375',-0.100,0.160
'18:06.378',-0.095,0.155
'18:06.381',-0.090,0.140
'18:06.383',-0.090,0.145
'18:06.386',-0.110,0.135
'18:06.389',-0.115,0.150
'18:06.392',-0.110,0.145
'18:06.394',-0.110,0.150
'18:06.397',-0.115,0.145
'18:06.400',-0.120,0.150
'18:06.403',-0.125,0.145
'18:06.406',-0.105,0.130
'18:06.408',-0.095,0.140
'18:06.411',-0.095,0.145
'18:06.414',-0.100,0.140
'18:06.417',-0.115,0.130
'18:06.419',-0.115,0.135
'18:06.422',-0.115,0.140
'18:06.425',-0.130,0.160
'18:06.428',-0.115,0.150
'18:06.431',-0.110,0.145
'18:06.433',-0.135,0.140
'18:06.436',-0.155,0.135
'18:06.439',-0.150,0.145
'18:06.442',-0.140,0.165
'18:06.444',-0.135,0.160
'18:06.447',-0.150,0.155
'18:06.450',-0.145,0.145
'18:06.453',-0.145,0.140
'18:06.456',-0.160,0.145
'18:06.458',-0.160,0.165
'18:06.461',-0.160,0.165
'18:06.464',-0.150,0.175
'18:06.467',-0.160,0.155
'18:06.469',-0.160,0.145
'18:06.472',-0.165,0.155
'18:06.475',-0.160,0.165
'18:06.478',-0.155,0.160
'18:06.481',-0.150,0.165
'18:06.483',-0.155,0.150
'18:06.486',-0.170,0.150
'18:06.489',-0.165,0.155
'18:06.492',-0.165,0.150
'18:06.494',-0.165,0.155
'18:06.497',-0.150,0.155
'18:06.500',-0.170,0.155
'18:06.503',-0.180,0.150
'18:06.506',-0.180,0.160
'18:06.508',-0.165,0.170
'18:06.511',-0.160,0.165
'18:06.514',-0.185,0.165
'18:06.517',-0.180,0.155
'18:06.519',-0.190,0.150
'18:06.522',-0.180,0.150
'18:06.525',-0.180,0.160
'18:06.528',-0.170,0.175
'18:06.531',-0.180,0.150
'18:06.533',-0.195,0.145
'18:06.536',-0.205,0.155
'18:06.539',-0.200,0.160
'18:06.542',-0.195,0.155
'18:06.544',-0.165,0.150
'18:06.547',-0.175,0.155
'18:06.550',-0.190,0.145
'18:06.553',-0.200,0.155
'18:06.556',-0.185,0.140
'18:06.558',-0.185,0.160
'18:06.561',-0.175,0.160
'18:06.564',-0.170,0.165
'18:06.567',-0.185,0.140
'18:06.569',-0.205,0.140
'18:06.572',-0.195,0.150
'18:06.575',-0.195,0.155
'18:06.578',-0.195,0.160
'18:06.581',-0.195,0.150
'18:06.583',-0.190,0.145
'18:06.586',-0.200,0.135
'18:06.589',-0.190,0.150
'18:06.592',-0.200,0.155
'18:06.594',-0.170,0.155
'18:06.597',-0.165,0.150
'18:06.600',-0.180,0.135
'18:06.603',-0.190,0.125
'18:06.606',-0.190,0.130
'18:06.608',-0.190,0.145
'18:06.611',-0.190,0.155
'18:06.614',-0.185,0.155
'18:06.617',-0.200,0.145
'18:06.619',-0.200,0.140
'18:06.622',-0.195,0.140
'18:06.625',-0.210,0.155
'18:06.628',-0.205,0.150
'18:06.631',-0.195,0.155
'18:06.633',-0.195,0.145
'18:06.636',-0.205,0.145
'18:06.639',-0.185,0.150
'18:06.642',-0.195,0.155
'18:06.644',-0.190,0.155
'18:06.647',-0.200,0.160
'18:06.650',-0.220,0.150
'18:06.653',-0.225,0.150
'18:06.656',-0.215,0.145
'18:06.658',-0.195,0.155
'18:06.661',-0.170,0.150
'18:06.664',-0.165,0.150
'18:06.667',-0.195,0.145
'18:06.669',-0.205,0.135
'18:06.672',-0.195,0.140
'18:06.675',-0.200,0.145
'18:06.678',-0.170,0.145
'18:06.681',-0.160,0.155
'18:06.683',-0.160,0.150
'18:06.686',-0.160,0.160
'18:06.689',-0.170,0.175
'18:06.692',-0.170,0.180
'18:06.694',-0.160,0.185
'18:06.697',-0.150,0.180
'18:06.700',-0.155,0.180
'18:06.703',-0.155,0.180
'18:06.706',-0.150,0.195
'18:06.708',-0.140,0.190
'18:06.711',-0.125,0.185
'18:06.714',-0.125,0.165
'18:06.717',-0.155,0.155
'18:06.719',-0.175,0.130
'18:06.722',-0.170,0.140
'18:06.725',-0.160,0.155
'18:06.728',-0.155,0.165
'18:06.731',-0.160,0.155
'18:06.733',-0.200,0.130
'18:06.736',-0.195,0.125
'18:06.739',-0.200,0.135
'18:06.742',-0.200,0.145
'18:06.744',-0.195,0.125
'18:06.747',-0.180,0.130
'18:06.750',-0.190,0.110
'18:06.753',-0.175,0.095
'18:06.756',-0.170,0.105
'18:06.758',-0.185,0.120
'18:06.761',-0.200,0.125
'18:06.764',-0.225,0.120
'18:06.767',-0.225,0.105
'18:06.769',-0.240,0.110
'18:06.772',-0.235,0.100
'18:06.775',-0.225,0.110
'18:06.778',-0.215,0.125
'18:06.781',-0.215,0.135
'18:06.783',-0.210,0.125
'18:06.786',-0.215,0.115
'18:06.789',-0.210,0.115
'18:06.792',-0.200,0.135
'18:06.794',-0.200,0.140
'18:06.797',-0.195,0.155
'18:06.800',-0.195,0.150
'18:06.803',-0.220,0.155
'18:06.806',-0.220,0.160
'18:06.808',-0.220,0.160
'18:06.811',-0.230,0.160
'18:06.814',-0.225,0.155
'18:06.817',-0.240,0.145
'18:06.819',-0.245,0.140
'18:06.822',-0.235,0.155
'18:06.825',-0.240,0.170
'18:06.828',-0.235,0.165
'18:06.831',-0.220,0.150
'18:06.833',-0.240,0.140
'18:06.836',-0.225,0.150
'18:06.839',-0.220,0.155
'18:06.842',-0.200,0.155
'18:06.844',-0.195,0.155
'18:06.847',-0.210,0.150
'18:06.850',-0.200,0.150
'18:06.853',-0.230,0.145
'18:06.856',-0.240,0.140
'18:06.858',-0.260,0.155
'18:06.861',-0.270,0.165
'18:06.864',-0.270,0.165
'18:06.867',-0.265,0.145
'18:06.869',-0.220,0.135
'18:06.872',-0.145,0.130
'18:06.875',-0.060,0.140
'18:06.878',0.040,0.120
'18:06.881',0.135,0.095
'18:06.883',0.230,0.055
'18:06.886',0.310,0.040
'18:06.889',0.405,0.060
'18:06.892',0.510,0.065
'18:06.894',0.630,0.025
'18:06.897',0.740,-0.020
'18:06.900',0.840,-0.095
'18:06.903',0.910,-0.170
'18:06.906',0.945,-0.225
'18:06.908',0.920,-0.255
'18:06.911',0.820,-0.290
'18:06.914',0.705,-0.305
'18:06.917',0.520,-0.315
'18:06.919',0.225,-0.255
'18:06.922',-0.110,-0.165
'18:06.925',-0.385,-0.085
'18:06.928',-0.535,-0.055
'18:06.931',-0.615,-0.015
'18:06.933',-0.665,0.020
'18:06.936',-0.650,0.040
'18:06.939',-0.585,0.065
'18:06.942',-0.520,0.080
'18:06.944',-0.485,0.075
'18:06.947',-0.475,0.065
'18:06.950',-0.455,0.075
'18:06.953',-0.445,0.085
'18:06.956',-0.415,0.095
'18:06.958',-0.395,0.115
'18:06.961',-0.405,0.140
'18:06.964',-0.420,0.130
'18:06.967',-0.425,0.120
'18:06.969',-0.435,0.115
'18:06.972',-0.425,0.110
'18:06.975',-0.405,0.125
'18:06.978',-0.380,0.145
'18:06.981',-0.355,0.150
'18:06.983',-0.330,0.135
'18:06.986',-0.330,0.130
'18:06.989',-0.325,0.140
'18:06.992',-0.330,0.165
'18:06.994',-0.340,0.170
'18:06.997',-0.340,0.165
'18:07.000',-0.330,0.140
'18:07.003',-0.360,0.140
'18:07.006',-0.350,0.155
'18:07.008',-0.335,0.155
'18:07.011',-0.320,0.145
'18:07.014',-0.315,0.155
'18:07.017',-0.320,0.140
'18:07.019',-0.335,0.140
'18:07.022',-0.340,0.145
'18:07.025',-0.335,0.150
'18:07.028',-0.330,0.150
'18:07.031',-0.325,0.140
'18:07.033',-0.330,0.125
'18:07.036',-0.335,0.140
'18:07.039',-0.325,0.150
'18:07.042',-0.300,0.155
'18:07.044',-0.270,0.135
'18:07.047',-0.270,0.140
'18:07.050',-0.290,0.120
'18:07.053',-0.330,0.105
'18:07.056',-0.335,0.125
'18:07.058',-0.315,0.155
'18:07.061',-0.285,0.135
'18:07.064',-0.280,0.140
'18:07.067',-0.290,0.135
'18:07.069',-0.310,0.120
'18:07.072',-0.305,0.145
'18:07.075',-0.310,0.160
'18:07.078',-0.290,0.155
'18:07.081',-0.265,0.145
'18:07.083',-0.275,0.135
'18:07.086',-0.290,0.145
'18:07.089',-0.285,0.155
'18:07.092',-0.295,0.170
'18:07.094',-0.290,0.160
'18:07.097',-0.280,0.150
'18:07.100',-0.275,0.150
'18:07.103',-0.275,0.145
'18:07.106',-0.275,0.150
'18:07.108',-0.260,0.150
'18:07.111',-0.240,0.155
'18:07.114',-0.235,0.135
'18:07.117',-0.255,0.135
'18:07.119',-0.260,0.135
'18:07.122',-0.260,0.165
'18:07.125',-0.250,0.165
'18:07.128',-0.240,0.170
'18:07.131',-0.225,0.160
'18:07.133',-0.230,0.160
'18:07.136',-0.240,0.170
'18:07.139',-0.250,0.170
'18:07.142',-0.255,0.180
'18:07.144',-0.245,0.180
'18:07.147',-0.240,0.170
'18:07.150',-0.240,0.180
'18:07.153',-0.250,0.175
'18:07.156',-0.250,0.180
'18:07.158',-0.240,0.185
'18:07.161',-0.235,0.190
'18:07.164',-0.240,0.185
'18:07.167',-0.240,0.170
'18:07.169',-0.265,0.160
'18:07.172',-0.235,0.175
'18:07.175',-0.230,0.190
'18:07.178',-0.215,0.190
'18:07.181',-0.210,0.180
'18:07.183',-0.230,0.170
'18:07.186',-0.260,0.160
'18:07.189',-0.250,0.175
'18:07.192',-0.240,0.180
'18:07.194',-0.215,0.180
'18:07.197',-0.195,0.170
'18:07.200',-0.185,0.160
'18:07.203',-0.190,0.155
'18:07.206',-0.180,0.155
'18:07.208',-0.175,0.170
'18:07.211',-0.160,0.165
'18:07.214',-0.170,0.170
'18:07.217',-0.165,0.150
'18:07.219',-0.175,0.155
'18:07.222',-0.185,0.145
'18:07.225',-0.185,0.155
'18:07.228',-0.155,0.145
'18:07.231',-0.130,0.145
'18:07.233',-0.130,0.145
'18:07.236',-0.140,0.130
'18:07.239',-0.140,0.145
'18:07.242',-0.135,0.160
'18:07.244',-0.135,0.150
'18:07.247',-0.135,0.150
'18:07.250',-0.135,0.145
'18:07.253',-0.145,0.130
'18:07.256',-0.135,0.145
'18:07.258',-0.155,0.140
'18:07.261',-0.155,0.145
'18:07.264',-0.150,0.145
'18:07.267',-0.170,0.125
'18:07.269',-0.175,0.120
'18:07.272',-0.195,0.120
'18:07.275',-0.170,0.125
'18:07.278',-0.165,0.135
'18:07.281',-0.185,0.135
'18:07.283',-0.190,0.125
'18:07.286',-0.215,0.115
'18:07.289',-0.190,0.125
'18:07.292',-0.200,0.135
'18:07.294',-0.195,0.145
'18:07.297',-0.205,0.135
'18:07.300',-0.220,0.135
'18:07.303',-0.220,0.130
'18:07.306',-0.220,0.140
'18:07.308',-0.215,0.140
'18:07.311',-0.210,0.140
'18:07.314',-0.215,0.135
'18:07.317',-0.230,0.125
'18:07.319',-0.240,0.120
'18:07.322',-0.240,0.135
'18:07.325',-0.240,0.145
'18:07.328',-0.225,0.145
'18:07.331',-0.250,0.140
'18:07.333',-0.245,0.120
'18:07.336',-0.255,0.135
'18:07.339',-0.260,0.130
'18:07.342',-0.250,0.135
'18:07.344',-0.240,0.140
'18:07.347',-0.230,0.140
'18:07.350',-0.220,0.125
'18:07.353',-0.225,0.130
'18:07.356',-0.215,0.125
'18:07.358',-0.200,0.130
'18:07.361',-0.190,0.115
'18:07.364',-0.190,0.130
'18:07.367',-0.195,0.115
'18:07.369',-0.200,0.105
'18:07.372',-0.175,0.105
'18:07.375',-0.140,0.120
'18:07.378',-0.110,0.100
'18:07.381',-0.090,0.080
'18:07.383',-0.105,0.065
'18:07.386',-0.115,0.055
'18:07.389',-0.095,0.045
'18:07.392',-0.060,0.050
'18:07.394',-0.005,0.045
'18:07.397',0.040,0.050
'18:07.400',0.085,0.030
'18:07.403',0.160,0.025
'18:07.406',0.250,0.025
'18:07.408',0.290,0.030
'18:07.411',0.280,0.045
'18:07.414',0.270,0.060
'18:07.417',0.250,0.060
'18:07.419',0.220,0.080
'18:07.422',0.165,0.125
'18:07.425',0.030,0.185
'18:07.428',-0.260,0.265
'18:07.431',-0.675,0.340
'18:07.433',-1.105,0.410
'18:07.436',-1.450,0.480
'18:07.439',-1.705,0.535
'18:07.442',-1.830,0.595
'18:07.444',-1.900,0.645
'18:07.447',-1.965,0.675
'18:07.450',-2.005,0.680
'18:07.453',-2.010,0.680
'18:07.456',-1.945,0.695
'18:07.458',-1.905,0.715
'18:07.461',-1.870,0.705
'18:07.464',-1.845,0.715
'18:07.467',-1.785,0.695
'18:07.469',-1.680,0.680
'18:07.472',-1.550,0.675
'18:07.475',-1.440,0.675
'18:07.478',-1.365,0.665
'18:07.481',-1.320,0.665
'18:07.483',-1.280,0.665
'18:07.486',-1.245,0.675
'18:07.489',-1.155,0.675
'18:07.492',-1.060,0.685
'18:07.494',-1.000,0.670
'18:07.497',-0.955,0.675
'18:07.500',-0.910,0.640
'18:07.503',-0.875,0.645
'18:07.506',-0.810,0.645
'18:07.508',-0.725,0.630
'18:07.511',-0.650,0.600
'18:07.514',-0.590,0.565
'18:07.517',-0.555,0.515
'18:07.519',-0.560,0.500
'18:07.522',-0.550,0.500
'18:07.525',-0.535,0.505
'18:07.528',-0.500,0.485
'18:07.531',-0.475,0.450
'18:07.533',-0.445,0.395
'18:07.536',-0.420,0.365
'18:07.539',-0.360,0.330
'18:07.542',-0.270,0.320
'18:07.544',-0.180,0.280
'18:07.547',-0.125,0.230
'18:07.550',-0.070,0.160
'18:07.553',-0.045,0.100
'18:07.556',-0.015,0.070
'18:07.558',0.005,0.035
'18:07.561',0.045,0.010
'18:07.564',0.065,-0.010
'18:07.567',0.075,-0.040
'18:07.569',0.070,-0.070
'18:07.572',0.105,-0.085
'18:07.575',0.110,-0.070
'18:07.578',0.125,-0.100
'18:07.581',0.145,-0.100
'18:07.583',0.150,-0.120
'18:07.586',0.155,-0.130
'18:07.589',0.175,-0.130
'18:07.592',0.190,-0.135
'18:07.594',0.210,-0.145
'18:07.597',0.225,-0.140
'18:07.600',0.230,-0.155
'18:07.603',0.210,-0.165
'18:07.606',0.260,-0.160
'18:07.608',0.285,-0.150
'18:07.611',0.305,-0.155
'18:07.614',0.320,-0.175
'18:07.617',0.320,-0.195
'18:07.619',0.325,-0.200
'18:07.622',0.350,-0.195
'18:07.625',0.370,-0.205
'18:07.628',0.400,-0.225
'18:07.631',0.415,-0.220
'18:07.633',0.420,-0.245
'18:07.636',0.420,-0.240
'18:07.639',0.450,-0.240
'18:07.642',0.470,-0.245
'18:07.644',0.505,-0.235
'18:07.647',0.515,-0.255
'18:07.650',0.520,-0.260
'18:07.653',0.515,-0.270
'18:07.656',0.530,-0.280
'18:07.658',0.545,-0.285
'18:07.661',0.560,-0.280
'18:07.664',0.575,-0.290
'18:07.667',0.585,-0.320
'18:07.669',0.580,-0.315
'18:07.672',0.595,-0.310
'18:07.675',0.610,-0.305
'18:07.678',0.615,-0.300
'18:07.681',0.635,-0.305
'18:07.683',0.625,-0.325
'18:07.686',0.620,-0.335
'18:07.689',0.625,-0.325
'18:07.692',0.645,-0.325
'18:07.694',0.655,-0.320
'18:07.697',0.665,-0.340
'18:07.700',0.660,-0.345
'18:07.703',0.645,-0.345
'18:07.706',0.645,-0.335
'18:07.708',0.625,-0.320
'18:07.711',0.645,-0.315
'18:07.714',0.645,-0.305
'18:07.717',0.625,-0.320
'18:07.719',0.600,-0.325
'18:07.722',0.595,-0.310
'18:07.725',0.580,-0.300
'18:07.728',0.575,-0.295
'18:07.731',0.565,-0.285
'18:07.733',0.540,-0.285
'18:07.736',0.510,-0.285
'18:07.739',0.490,-0.270
'18:07.742',0.480,-0.260
'18:07.744',0.475,-0.255
'18:07.747',0.455,-0.250
'18:07.750',0.425,-0.260
'18:07.753',0.395,-0.260
'18:07.756',0.365,-0.240
'18:07.758',0.345,-0.210
'18:07.761',0.335,-0.190
'18:07.764',0.310,-0.185
'18:07.767',0.285,-0.195
'18:07.769',0.250,-0.190
'18:07.772',0.215,-0.175
'18:07.775',0.205,-0.150
'18:07.778',0.200,-0.135
'18:07.781',0.185,-0.135
'18:07.783',0.160,-0.135
'18:07.786',0.140,-0.130
'18:07.789',0.120,-0.110
'18:07.792',0.110,-0.085
'18:07.794',0.105,-0.075
'18:07.797',0.085,-0.065
'18:07.800',0.065,-0.070
'18:07.803',0.030,-0.055
'18:07.806',0.010,-0.030
'18:07.808',0.010,-0.010
'18:07.811',0.005,-0.005
'18:07.814',-0.005,0.000
'18:07.817',-0.035,-0.005
'18:07.819',-0.065,0.005
'18:07.822',-0.065,0.015
'18:07.825',-0.070,0.045
'18:07.828',-0.075,0.060
'18:07.831',-0.100,0.060
'18:07.833',-0.095,0.060
'18:07.836',-0.120,0.070
'18:07.839',-0.110,0.070
'18:07.842',-0.105,0.085
'18:07.844',-0.110,0.090
'18:07.847',-0.125,0.095
'18:07.850',-0.130,0.075
'18:07.853',-0.145,0.085
'18:07.856',-0.145,0.085
'18:07.858',-0.150,0.105
'18:07.861',-0.135,0.100
'18:07.864',-0.140,0.100
'18:07.867',-0.140,0.105
'18:07.869',-0.155,0.100
'18:07.872',-0.155,0.120
'18:07.875',-0.155,0.120
'18:07.878',-0.150,0.110
'18:07.881',-0.155,0.105
'18:07.883',-0.170,0.100
'18:07.886',-0.175,0.105
'18:07.889',-0.180,0.105
'18:07.892',-0.175,0.120
'18:07.894',-0.175,0.125
'18:07.897',-0.170,0.110
'18:07.900',-0.175,0.100
'18:07.903',-0.190,0.100
'18:07.906',-0.190,0.105
'18:07.908',-0.185,0.110
'18:07.911',-0.180,0.115
'18:07.914',-0.190,0.125
'18:07.917',-0.185,0.105
'18:07.919',-0.200,0.090
'18:07.922',-0.195,0.110
'18:07.925',-0.205,0.125
'18:07.928',-0.190,0.125
'18:07.931',-0.185,0.115
'18:07.933',-0.185,0.095
'18:07.936',-0.215,0.095
'18:07.939',-0.225,0.115
'18:07.942',-0.250,0.115
'18:07.944',-0.250,0.120
'18:07.947',-0.245,0.115
'18:07.950',-0.220,0.100
'18:07.953',-0.220,0.115
'18:07.956',-0.225,0.115
'18:07.958',-0.225,0.115
'18:07.961',-0.210,0.120
'18:07.964',-0.210,0.115
'18:07.967',-0.215,0.110
'18:07.969',-0.245,0.105
'18:07.972',-0.250,0.120
'18:07.975',-0.250,0.130
'18:07.978',-0.245,0.135
'18:07.981',-0.235,0.125
'18:07.983',-0.220,0.125
'18:07.986',-0.230,0.110
'18:07.989',-0.230,0.120
'18:07.992',-0.225,0.125
'18:07.994',-0.215,0.135
'18:07.997',-0.225,0.140
'18:08.000',-0.230,0.120
'18:08.003',-0.245,0.115
'18:08.006',-0.240,0.130
'18:08.008',-0.250,0.125
'18:08.011',-0.235,0.125
'18:08.014',-0.230,0.135
'18:08.017',-0.225,0.135
'18:08.019',-0.240,0.130
'18:08.022',-0.245,0.115
'18:08.025',-0.235,0.135
'18:08.028',-0.235,0.140
'18:08.031',-0.240,0.135
'18:08.033',-0.235,0.125
'18:08.036',-0.245,0.120
'18:08.039',-0.250,0.120
'18:08.042',-0.245,0.110
'18:08.044',-0.245,0.120
'18:08.047',-0.250,0.130
'18:08.050',-0.255,0.120
'18:08.053',-0.265,0.110
'18:08.056',-0.265,0.125
'18:08.058',-0.255,0.140
'18:08.061',-0.260,0.130
'18:08.064',-0.265,0.130
'18:08.067',-0.265,0.120
'18:08.069',-0.270,0.105
'18:08.072',-0.260,0.120
'18:08.075',-0.260,0.140
'18:08.078',-0.240,0.140
'18:08.081',-0.235,0.130
'18:08.083',-0.255,0.120
'18:08.086',-0.260,0.120
'18:08.089',-0.260,0.130
'18:08.092',-0.255,0.155
'18:08.094',-0.245,0.145
'18:08.097',-0.250,0.135
'18:08.100',-0.260,0.130
'18:08.103',-0.275,0.120
'18:08.106',-0.270,0.120
'18:08.108',-0.265,0.145
'18:08.111',-0.250,0.135
'18:08.114',-0.260,0.145
'18:08.117',-0.265,0.130
'18:08.119',-0.280,0.135
'18:08.122',-0.265,0.135
'18:08.125',-0.260,0.140
'18:08.128',-0.250,0.135
'18:08.131',-0.245,0.135
'18:08.133',-0.245,0.120
'18:08.136',-0.255,0.120
'18:08.139',-0.255,0.130
'18:08.142',-0.245,0.135
'18:08.144',-0.230,0.140
'18:08.147',-0.225,0.140
'18:08.150',-0.235,0.120
'18:08.153',-0.245,0.125
'18:08.156',-0.250,0.115
'18:08.158',-0.240,0.150
'18:08.161',-0.235,0.140
'18:08.164',-0.235,0.140
'18:08.167',-0.230,0.130
'18:08.169',-0.230,0.125
'18:08.172',-0.230,0.135
'18:08.175',-0.230,0.135
'18:08.178',-0.215,0.140
'18:08.181',-0.205,0.135
'18:08.183',-0.215,0.120
'18:08.186',-0.220,0.125
'18:08.189',-0.225,0.135
'18:08.192',-0.210,0.145
'18:08.194',-0.190,0.150
'18:08.197',-0.175,0.145
'18:08.200',-0.180,0.145
'18:08.203',-0.195,0.125
'18:08.206',-0.210,0.140
'18:08.208',-0.225,0.150
'18:08.211',-0.195,0.150
'18:08.214',-0.190,0.150
'18:08.217',-0.185,0.130
'18:08.219',-0.190,0.130
'18:08.222',-0.195,0.135
'18:08.225',-0.205,0.145
'18:08.228',-0.195,0.145
'18:08.231',-0.200,0.130
'18:08.233',-0.215,0.115
'18:08.236',-0.240,0.120
'18:08.239',-0.250,0.120
'18:08.242',-0.265,0.135
'18:08.244',-0.255,0.130
'18:08.247',-0.265,0.130
'18:08.250',-0.275,0.105
'18:08.253',-0.280,0.095
'18:08.256',-0.290,0.100
'18:08.258',-0.285,0.100
'18:08.261',-0.260,0.100
'18:08.264',-0.250,0.095
'18:08.267',-0.250,0.080
'18:08.269',-0.255,0.075
'18:08.272',-0.270,0.095
'18:08.275',-0.270,0.105
'18:08.278',-0.255,0.105
'18:08.281',-0.250,0.105
'18:08.283',-0.245,0.085
'18:08.286',-0.240,0.095
'18:08.289',-0.240,0.095
'18:08.292',-0.235,0.105
'18:08.294',-0.220,0.115
'18:08.297',-0.220,0.120
'18:08.300',-0.225,0.110
'18:08.303',-0.255,0.105
'18:08.306',-0.265,0.125
'18:08.308',-0.275,0.120
'18:08.311',-0.260,0.125
'18:08.314',-0.260,0.130
'18:08.317',-0.260,0.125
'18:08.319',-0.260,0.135
'18:08.322',-0.270,0.130
'18:08.325',-0.270,0.140
'18:08.328',-0.250,0.140
'18:08.331',-0.240,0.130
'18:08.333',-0.250,0.125
'18:08.336',-0.260,0.125
'18:08.339',-0.250,0.130
'18:08.342',-0.250,0.140
'18:08.344',-0.235,0.125
'18:08.347',-0.240,0.130
'18:08.350',-0.265,0.125
'18:08.353',-0.275,0.115
'18:08.356',-0.255,0.120
'18:08.358',-0.245,0.135
'18:08.361',-0.240,0.135
'18:08.364',-0.255,0.125
'18:08.367',-0.270,0.125
'18:08.369',-0.290,0.120
'18:08.372',-0.285,0.130
'18:08.375',-0.250,0.135
'18:08.378',-0.205,0.140
'18:08.381',-0.150,0.125
'18:08.383',-0.080,0.105
'18:08.386',0.005,0.085
'18:08.389',0.120,0.075
'18:08.392',0.240,0.080
'18:08.394',0.330,0.070
'18:08.397',0.400,0.055
'18:08.400',0.490,0.030
'18:08.403',0.590,0.000
'18:08.406',0.720,-0.015
'18:08.408',0.865,-0.075
'18:08.411',0.995,-0.130
'18:08.414',1.100,-0.205
'18:08.417',1.115,-0.250
'18:08.419',1.050,-0.285
'18:08.422',0.950,-0.295
'18:08.425',0.800,-0.315
'18:08.428',0.525,-0.295
'18:08.431',0.125,-0.230
'18:08.433',-0.260,-0.175
'18:08.436',-0.520,-0.130
'18:08.439',-0.630,-0.085
'18:08.442',-0.645,-0.030
'18:08.444',-0.640,-0.015
'18:08.447',-0.605,0.015
'18:08.450',-0.550,0.020
'18:08.453',-0.510,0.035
'18:08.456',-0.490,0.040
'18:08.458',-0.480,0.050
'18:08.461',-0.455,0.040
'18:08.464',-0.425,0.035
'18:08.467',-0.420,0.045
'18:08.469',-0.430,0.040
'18:08.472',-0.445,0.055
'18:08.475',-0.450,0.075
'18:08.478',-0.450,0.090
'18:08.481',-0.450,0.095
'18:08.483',-0.435,0.085
'18:08.486',-0.455,0.090
'18:08.489',-0.450,0.100
'18:08.492',-0.435,0.110
'18:08.494',-0.390,0.120
'18:08.497',-0.370,0.115
'18:08.500',-0.360,0.110
'18:08.503',-0.365,0.120
'18:08.506',-0.350,0.130
'18:08.508',-0.370,0.140
'18:08.511',-0.370,0.140
'18:08.514',-0.355,0.140
'18:08.517',-0.355,0.140
'18:08.519',-0.365,0.120
'18:08.522',-0.360,0.130
'18:08.525',-0.360,0.140
'18:08.528',-0.350,0.150
'18:08.531',-0.345,0.150
'18:08.533',-0.340,0.140
'18:08.536',-0.345,0.120
'18:08.539',-0.335,0.120
'18:08.542',-0.335,0.125
'18:08.544',-0.320,0.130
'18:08.547',-0.320,0.135
'18:08.550',-0.330,0.120
'18:08.553',-0.330,0.120
'18:08.556',-0.345,0.125
'18:08.558',-0.330,0.140
'18:08.561',-0.315,0.130
'18:08.564',-0.310,0.125
'18:08.567',-0.320,0.120
'18:08.569',-0.320,0.110
'18:08.572',-0.320,0.135
'18:08.575',-0.310,0.135
'18:08.578',-0.310,0.135
'18:08.581',-0.320,0.125
'18:08.583',-0.320,0.115
'18:08.586',-0.340,0.110
'18:08.589',-0.315,0.125
'18:08.592',-0.305,0.125
'18:08.594',-0.295,0.140
'18:08.597',-0.290,0.140
'18:08.600',-0.310,0.140
'18:08.603',-0.310,0.130
'18:08.606',-0.300,0.130
'18:08.608',-0.310,0.145
'18:08.611',-0.295,0.140
'18:08.614',-0.300,0.135
'18:08.617',-0.300,0.130
'18:08.619',-0.310,0.130
'18:08.622',-0.305,0.130
'18:08.625',-0.310,0.140
'18:08.628',-0.290,0.140
'18:08.631',-0.275,0.135
'18:08.633',-0.290,0.120
'18:08.636',-0.300,0.120
'18:08.639',-0.300,0.145
'18:08.642',-0.295,0.160
'18:08.644',-0.290,0.165
'18:08.647',-0.280,0.165
'18:08.650',-0.280,0.155
'18:08.653',-0.295,0.135
'18:08.656',-0.300,0.150
'18:08.658',-0.285,0.155
'18:08.661',-0.270,0.165
'18:08.664',-0.260,0.165
'18:08.667',-0.265,0.160
'18:08.669',-0.265,0.155
'18:08.672',-0.265,0.170
'18:08.675',-0.260,0.185
'18:08.678',-0.260,0.185
'18:08.681',-0.260,0.185
'18:08.683',-0.265,0.170
'18:08.686',-0.275,0.155
'18:08.689',-0.275,0.150
'18:08.692',-0.275,0.160
'18:08.694',-0.265,0.160
'18:08.697',-0.280,0.160
'18:08.700',-0.260,0.160
'18:08.703',-0.245,0.160
'18:08.706',-0.225,0.175
'18:08.708',-0.210,0.175
'18:08.711',-0.200,0.170
'18:08.714',-0.210,0.155
'18:08.717',-0.195,0.150
'18:08.719',-0.200,0.150
'18:08.722',-0.200,0.150
'18:08.725',-0.215,0.175
'18:08.728',-0.190,0.180
'18:08.731',-0.180,0.170
'18:08.733',-0.185,0.145
'18:08.736',-0.195,0.140
'18:08.739',-0.185,0.145
'18:08.742',-0.165,0.145
'18:08.744',-0.155,0.140
'18:08.747',-0.170,0.140
'18:08.750',-0.160,0.135
'18:08.753',-0.175,0.120
'18:08.756',-0.165,0.130
'18:08.758',-0.150,0.140
'18:08.761',-0.145,0.130
'18:08.764',-0.165,0.120
'18:08.767',-0.175,0.125
'18:08.769',-0.185,0.105
'18:08.772',-0.175,0.110
'18:08.775',-0.160,0.105
'18:08.778',-0.170,0.110
'18:08.781',-0.165,0.115
'18:08.783',-0.175,0.110
'18:08.786',-0.190,0.105
'18:08.789',-0.190,0.100
'18:08.792',-0.190,0.105
'18:08.794',-0.185,0.095
'18:08.797',-0.195,0.105
'18:08.800',-0.215,0.090
'18:08.803',-0.210,0.090
'18:08.806',-0.215,0.100
'18:08.808',-0.195,0.105
'18:08.811',-0.190,0.100
'18:08.814',-0.190,0.105
'18:08.817',-0.185,0.095
'18:08.819',-0.200,0.085
'18:08.822',-0.205,0.090
'18:08.825',-0.215,0.100
'18:08.828',-0.220,0.095
'18:08.831',-0.215,0.115
'18:08.833',-0.225,0.090
'18:08.836',-0.235,0.105
'18:08.839',-0.225,0.105
'18:08.842',-0.230,0.120
'18:08.844',-0.225,0.115
'18:08.847',-0.225,0.105
'18:08.850',-0.235,0.095
'18:08.853',-0.250,0.105
'18:08.856',-0.240,0.105
'18:08.858',-0.235,0.110
'18:08.861',-0.220,0.115
'18:08.864',-0.225,0.125
'18:08.867',-0.225,0.105
'18:08.869',-0.230,0.105
'18:08.872',-0.230,0.100
'18:08.875',-0.225,0.110
'18:08.878',-0.205,0.110
'18:08.881',-0.195,0.110
'18:08.883',-0.190,0.095
'18:08.886',-0.185,0.090
'18:08.889',-0.160,0.105
'18:08.892',-0.135,0.105
'18:08.894',-0.130,0.105
'18:08.897',-0.110,0.100
'18:08.900',-0.110,0.080
'18:08.903',-0.105,0.080
'18:08.906',-0.080,0.065
'18:08.908',-0.045,0.055
'18:08.911',-0.030,0.055
'18:08.914',-0.040,0.045
'18:08.917',-0.080,0.025
'18:08.919',-0.100,0.015
'18:08.922',-0.080,0.000
'18:08.925',-0.060,0.000
'18:08.928',-0.040,-0.010
'18:08.931',-0.095,-0.035
'18:08.933',-0.200,-0.030
'18:08.936',-0.340,-0.035
'18:08.939',-0.530,-0.020
'18:08.942',-0.830,0.020
'18:08.944',-1.205,0.050
'18:08.947',-1.565,0.110
'18:08.950',-1.895,0.165
'18:08.953',-2.150,0.230
'18:08.956',-2.285,0.310
'18:08.958',-2.325,0.380
'18:08.961',-2.315,0.425
'18:08.964',-2.300,0.450
'18:08.967',-2.295,0.465
'18:08.969',-2.270,0.485
'18:08.972',-2.225,0.515
'18:08.975',-2.155,0.545
'18:08.978',-2.050,0.545
'18:08.981',-1.955,0.565
'18:08.983',-1.865,0.565
'18:08.986',-1.755,0.585
'18:08.989',-1.665,0.610
'18:08.992',-1.550,0.650
'18:08.994',-1.445,0.685
'18:08.997',-1.340,0.690
'18:09.000',-1.255,0.710
'18:09.003',-1.185,0.715
'18:09.006',-1.120,0.730
'18:09.008',-1.035,0.745
'18:09.011',-0.970,0.745
'18:09.014',-0.910,0.745
'18:09.017',-0.855,0.715
'18:09.019',-0.800,0.690
'18:09.022',-0.750,0.655
'18:09.025',-0.705,0.650
'18:09.028',-0.665,0.625
'18:09.031',-0.605,0.615
'18:09.033',-0.555,0.575
'18:09.036',-0.510,0.530
'18:09.039',-0.445,0.495
'18:09.042',-0.360,0.455
'18:09.044',-0.280,0.425
'18:09.047',-0.190,0.380
'18:09.050',-0.120,0.335
'18:09.053',-0.075,0.275
'18:09.056',-0.020,0.225
'18:09.058',0.060,0.180
'18:09.061',0.120,0.125
'18:09.064',0.170,0.090
'18:09.067',0.195,0.050
'18:09.069',0.200,0.015
'18:09.072',0.215,0.005
'18:09.075',0.225,-0.015
'18:09.078',0.255,-0.040
'18:09.081',0.265,-0.055
'18:09.083',0.265,-0.065
'18:09.086',0.265,-0.080
'18:09.089',0.260,-0.070
'18:09.092',0.275,-0.065
'18:09.094',0.300,-0.065
'18:09.097',0.310,-0.075
'18:09.100',0.315,-0.100
'18:09.103',0.320,-0.110
'18:09.106',0.330,-0.110
'18:09.108',0.340,-0.105
'18:09.111',0.360,-0.115
'18:09.114',0.395,-0.115
'18:09.117',0.395,-0.135
'18:09.119',0.395,-0.150
'18:09.122',0.405,-0.140
'18:09.125',0.425,-0.135
'18:09.128',0.460,-0.150
'18:09.131',0.455,-0.165
'18:09.133',0.460,-0.175
'18:09.136',0.465,-0.180
'18:09.139',0.485,-0.175
'18:09.142',0.500,-0.175
'18:09.144',0.520,-0.180
'18:09.147',0.535,-0.185
'18:09.150',0.535,-0.195
'18:09.153',0.560,-0.210
'18:09.156',0.560,-0.210
'18:09.158',0.580,-0.205
'18:09.161',0.590,-0.210
'18:09.164',0.610,-0.205
'18:09.167',0.610,-0.225
'18:09.169',0.630,-0.240
'18:09.172',0.640,-0.235
'18:09.175',0.660,-0.230
'18:09.178',0.675,-0.240
'18:09.181',0.670,-0.240
'18:09.183',0.670,-0.245
'18:09.186',0.670,-0.250
'18:09.189',0.670,-0.260
'18:09.192',0.680,-0.250
'18:09.194',0.705,-0.265
'18:09.197',0.715,-0.270
'18:09.200',0.710,-0.265
'18:09.203',0.695,-0.275
'18:09.206',0.685,-0.265
'18:09.208',0.690,-0.270
'18:09.211',0.705,-0.270
'18:09.214',0.705,-0.280
'18:09.217',0.695,-0.280
'18:09.219',0.690,-0.290
'18:09.222',0.680,-0.275
'18:09.225',0.680,-0.270
'18:09.228',0.680,-0.265
'18:09.231',0.660,-0.260
'18:09.233',0.650,-0.280
'18:09.236',0.630,-0.275
'18:09.239',0.625,-0.265
'18:09.242',0.610,-0.250
'18:09.244',0.605,-0.240
'18:09.247',0.580,-0.235
'18:09.250',0.555,-0.240
'18:09.253',0.530,-0.255
'18:09.256',0.495,-0.240
'18:09.258',0.475,-0.230
'18:09.261',0.460,-0.235
'18:09.264',0.440,-0.225
'18:09.267',0.430,-0.220
'18:09.269',0.390,-0.220
'18:09.272',0.370,-0.200
'18:09.275',0.350,-0.180
'18:09.278',0.330,-0.175
'18:09.281',0.305,-0.160
'18:09.283',0.275,-0.180
'18:09.286',0.230,-0.180
'18:09.289',0.215,-0.155
'18:09.292',0.205,-0.125
'18:09.294',0.200,-0.115
'18:09.297',0.175,-0.105
'18:09.300',0.155,-0.120
'18:09.303',0.120,-0.115
'18:09.306',0.115,-0.100
'18:09.308',0.105,-0.070
'18:09.311',0.080,-0.075
'18:09.314',0.075,-0.060
'18:09.317',0.050,-0.065
'18:09.319',0.035,-0.055
'18:09.322',0.025,-0.040
'18:09.325',0.015,-0.005
'18:09.328',0.000,-0.010
'18:09.331',-0.020,0.000
'18:09.333',-0.040,-0.005
'18:09.336',-0.060,-0.005
'18:09.339',-0.060,0.010
'18:09.342',-0.060,0.030
'18:09.344',-0.065,0.030
'18:09.347',-0.070,0.050
'18:09.350',-0.085,0.045
'18:09.353',-0.090,0.045
'18:09.356',-0.100,0.055
'18:09.358',-0.105,0.075
'18:09.361',-0.115,0.070
'18:09.364',-0.125,0.080
'18:09.367',-0.140,0.070
'18:09.369',-0.150,0.070
'18:09.372',-0.150,0.075
'18:09.375',-0.140,0.100
'18:09.378',-0.130,0.100
'18:09.381',-0.150,0.110
'18:09.383',-0.155,0.095
'18:09.386',-0.165,0.080
'18:09.389',-0.175,0.095
'18:09.392',-0.175,0.100
'18:09.394',-0.175,0.115
'18:09.397',-0.175,0.105
'18:09.400',-0.180,0.090
'18:09.403',-0.180,0.090
'18:09.406',-0.180,0.095
'18:09.408',-0.185,0.110
'18:09.411',-0.185,0.115
'18:09.414',-0.190,0.105
'18:09.417',-0.205,0.105
'18:09.419',-0.220,0.090
'18:09.422',-0.220,0.095
'18:09.425',-0.215,0.115
'18:09.428',-0.225,0.115
'18:09.431',-0.220,0.110
'18:09.433',-0.220,0.095
'18:09.436',-0.235,0.090
'18:09.439',-0.240,0.095
'18:09.442',-0.230,0.105
'18:09.444',-0.245,0.115
'18:09.447',-0.230,0.105
'18:09.450',-0.235,0.095
'18:09.453',-0.250,0.085
'18:09.456',-0.240,0.085
'18:09.458',-0.240,0.095
'18:09.461',-0.225,0.100
'18:09.464',-0.230,0.110
'18:09.467',-0.250,0.100
'18:09.469',-0.270,0.095
'18:09.472',-0.275,0.095
'18:09.475',-0.255,0.095
'18:09.478',-0.255,0.115
'18:09.481',-0.255,0.115
'18:09.483',-0.255,0.100
'18:09.486',-0.255,0.080
'18:09.489',-0.265,0.105
'18:09.492',-0.255,0.105
'18:09.494',-0.250,0.110
'18:09.497',-0.240,0.100
'18:09.500',-0.260,0.090
'18:09.503',-0.275,0.090
'18:09.506',-0.285,0.090
'18:09.508',-0.270,0.115
'18:09.511',-0.255,0.110
'18:09.514',-0.245,0.120
'18:09.517',-0.240,0.105
'18:09.519',-0.245,0.100
'18:09.522',-0.250,0.105
'18:09.525',-0.270,0.120
'18:09.528',-0.275,0.115
'18:09.531',-0.300,0.120
'18:09.533',-0.315,0.115
'18:09.536',-0.320,0.105
'18:09.539',-0.315,0.105
'18:09.542',-0.300,0.115
'18:09.544',-0.295,0.115
'18:09.547',-0.290,0.125
'18:09.550',-0.300,0.110
'18:09.553',-0.305,0.110
'18:09.556',-0.295,0.105
'18:09.558',-0.295,0.110
'18:09.561',-0.295,0.105
'18:09.564',-0.300,0.110
'18:09.567',-0.295,0.095
'18:09.569',-0.295,0.110
'18:09.572',-0.285,0.115
'18:09.575',-0.265,0.130
'18:09.578',-0.255,0.125
'18:09.581',-0.260,0.105
'18:09.583',-0.275,0.100
'18:09.586',-0.305,0.100
'18:09.589',-0.320,0.100
'18:09.592',-0.325,0.115
'18:09.594',-0.325,0.115
'18:09.597',-0.315,0.110
'18:09.600',-0.310,0.105
'18:09.603',-0.290,0.100
'18:09.606',-0.290,0.100
'18:09.608',-0.295,0.115
'18:09.611',-0.290,0.110
'18:09.614',-0.300,0.110
'18:09.617',-0.305,0.100
'18:09.619',-0.310,0.095
'18:09.622',-0.310,0.095
'18:09.625',-0.295,0.115
'18:09.628',-0.285,0.120
'18:09.631',-0.285,0.115
'18:09.633',-0.295,0.105
'18:09.636',-0.305,0.100
'18:09.639',-0.295,0.115
'18:09.642',-0.290,0.100
'18:09.644',-0.290,0.115
'18:09.647',-0.290,0.120
'18:09.650',-0.280,0.115
'18:09.653',-0.290,0.110
'18:09.656',-0.285,0.115
'18:09.658',-0.280,0.115
'18:09.661',-0.275,0.110
'18:09.664',-0.295,0.110
'18:09.667',-0.310,0.095
'18:09.669',-0.305,0.100
'18:09.672',-0.300,0.095
'18:09.675',-0.290,0.110
'18:09.678',-0.270,0.115
'18:09.681',-0.270,0.120
'18:09.683',-0.280,0.110
'18:09.686',-0.300,0.110
'18:09.689',-0.295,0.110
'18:09.692',-0.290,0.115
'18:09.694',-0.280,0.115
'18:09.697',-0.275,0.110
'18:09.700',-0.285,0.105
'18:09.703',-0.305,0.100
'18:09.706',-0.295,0.105
'18:09.708',-0.310,0.120
'18:09.711',-0.295,0.125
'18:09.714',-0.290,0.120
'18:09.717',-0.280,0.100
'18:09.719',-0.285,0.095
'18:09.722',-0.280,0.115
'18:09.725',-0.275,0.125
'18:09.728',-0.265,0.125
'18:09.731',-0.265,0.125
'18:09.733',-0.275,0.110
'18:09.736',-0.285,0.110
'18:09.739',-0.290,0.120
'18:09.742',-0.295,0.120
'18:09.744',-0.285,0.125
'18:09.747',-0.290,0.125
'18:09.750',-0.265,0.110
'18:09.753',-0.260,0.120
'18:09.756',-0.260,0.120
'18:09.758',-0.240,0.135
'18:09.761',-0.220,0.135
'18:09.764',-0.230,0.145
'18:09.767',-0.235,0.130
'18:09.769',-0.250,0.125
'18:09.772',-0.240,0.125
'18:09.775',-0.255,0.140
'18:09.778',-0.230,0.135
'18:09.781',-0.215,0.125
'18:09.783',-0.225,0.115
'18:09.786',-0.230,0.105
'18:09.789',-0.240,0.110
'18:09.792',-0.240,0.115
'18:09.794',-0.240,0.115
'18:09.797',-0.245,0.110
'18:09.800',-0.260,0.100
'18:09.803',-0.285,0.100
'18:09.806',-0.290,0.115
'18:09.808',-0.275,0.120
'18:09.811',-0.260,0.120
'18:09.814',-0.265,0.105
'18:09.817',-0.260,0.095
'18:09.819',-0.255,0.075
'18:09.822',-0.255,0.100
'18:09.825',-0.245,0.105
'18:09.828',-0.235,0.080
'18:09.831',-0.230,0.060
'18:09.833',-0.225,0.045
'18:09.836',-0.235,0.040
'18:09.839',-0.255,0.060
'18:09.842',-0.250,0.075
'18:09.844',-0.270,0.090
'18:09.847',-0.280,0.095
'18:09.850',-0.290,0.075
'18:09.853',-0.295,0.085
'18:09.856',-0.275,0.085
'18:09.858',-0.255,0.100
'18:09.861',-0.240,0.110
'18:09.864',-0.255,0.095
'18:09.867',-0.295,0.085
'18:09.869',-0.320,0.090
'18:09.872',-0.325,0.090
'18:09.875',-0.310,0.110
'18:09.878',-0.300,0.130
'18:09.881',-0.300,0.130
'18:09.883',-0.300,0.115
'18:09.886',-0.305,0.100
'18:09.889',-0.310,0.100
'18:09.892',-0.315,0.110
'18:09.894',-0.300,0.125
'18:09.897',-0.310,0.125
'18:09.900',-0.300,0.110
'18:09.903',-0.310,0.100
'18:09.906',-0.300,0.110
'18:09.908',-0.295,0.110
'18:09.911',-0.275,0.115
'18:09.914',-0.265,0.115
'18:09.917',-0.265,0.105
'18:09.919',-0.270,0.100
'18:09.922',-0.260,0.105
'18:09.925',-0.265,0.115
'18:09.928',-0.270,0.130
'18:09.931',-0.285,0.125
'18:09.933',-0.290,0.110
'18:09.936',-0.290,0.100
'18:09.939',-0.285,0.100
'18:09.942',-0.285,0.110
'18:09.944',-0.285,0.115
'18:09.947',-0.315,0.120
'18:09.950',-0.295,0.120
'18:09.953',-0.275,0.115
'18:09.956',-0.230,0.100
'18:09.958',-0.170,0.100
'18:09.961',-0.090,0.105
'18:09.964',-0.020,0.070
'18:09.967',0.050,0.040
'18:09.969',0.150,0.035
'18:09.972',0.235,0.040
'18:09.975',0.310,0.030
'18:09.978',0.400,0.035
'18:09.981',0.490,-0.005
'18:09.983',0.575,-0.030
'18:09.986',0.660,-0.070
'18:09.989',0.750,-0.085
'18:09.992',0.860,-0.135
'18:09.994',0.915,-0.200
'18:09.997',0.920,-0.250
'18:10.000',0.860,-0.305
'18:10.003',0.765,-0.330
'18:10.006',0.645,-0.320
'18:10.008',0.460,-0.295
'18:10.011',0.205,-0.270
'18:10.014',-0.140,-0.210
'18:10.017',-0.405,-0.155
'18:10.019',-0.575,-0.110
'18:10.022',-0.680,-0.075
'18:10.025',-0.725,-0.030
'18:10.028',-0.715,0.000
'18:10.031',-0.675,0.020
'18:10.033',-0.635,0.030
'18:10.036',-0.595,0.035
'18:10.039',-0.570,0.050
'18:10.042',-0.565,0.055
'18:10.044',-0.535,0.060
'18:10.047',-0.500,0.055
'18:10.050',-0.470,0.055
'18:10.053',-0.450,0.045
'18:10.056',-0.450,0.060
'18:10.058',-0.445,0.075
'18:10.061',-0.450,0.075
'18:10.064',-0.460,0.085
'18:10.067',-0.470,0.075
'18:10.069',-0.475,0.070
'18:10.072',-0.455,0.085
'18:10.075',-0.445,0.105
'18:10.078',-0.415,0.115
'18:10.081',-0.410,0.110
'18:10.083',-0.395,0.095
'18:10.086',-0.385,0.095
'18:10.089',-0.375,0.105
'18:10.092',-0.370,0.125
'18:10.094',-0.345,0.115
'18:10.097',-0.355,0.125
'18:10.100',-0.375,0.115
'18:10.103',-0.375,0.115
'18:10.106',-0.375,0.115
'18:10.108',-0.370,0.115
'18:10.111',-0.360,0.120
'18:10.114',-0.355,0.130
'18:10.117',-0.355,0.110
'18:10.119',-0.370,0.095
'18:10.122',-0.375,0.110
'18:10.125',-0.380,0.130
'18:10.128',-0.370,0.120
'18:10.131',-0.355,0.120
'18:10.133',-0.360,0.105
'18:10.136',-0.360,0.100
'18:10.139',-0.350,0.105
'18:10.142',-0.340,0.115
'18:10.144',-0.330,0.115
'18:10.147',-0.335,0.105
'18:10.150',-0.345,0.095
'18:10.153',-0.355,0.090
'18:10.156',-0.365,0.095
'18:10.158',-0.355,0.100
'18:10.161',-0.340,0.100
'18:10.164',-0.345,0.110
'18:10.167',-0.340,0.090
'18:10.169',-0.335,0.080
'18:10.172',-0.345,0.100
'18:10.175',-0.355,0.110
'18:10.178',-0.340,0.115
'18:10.181',-0.335,0.105
'18:10.183',-0.325,0.100
'18:10.186',-0.320,0.095
'18:10.189',-0.315,0.100
'18:10.192',-0.295,0.115
'18:10.194',-0.290,0.105
'18:10.197',-0.285,0.110
'18:10.200',-0.290,0.105
'18:10.203',-0.300,0.095
'18:10.206',-0.300,0.110
'18:10.208',-0.300,0.125
'18:10.211',-0.290,0.125
'18:10.214',-0.280,0.115
'18:10.217',-0.300,0.110
'18:10.219',-0.300,0.100
'18:10.222',-0.300,0.110
'18:10.225',-0.280,0.120
'18:10.228',-0.265,0.125
'18:10.231',-0.275,0.125
'18:10.233',-0.270,0.105
'18:10.236',-0.280,0.120
'18:10.239',-0.285,0.130
'18:10.242',-0.290,0.135
'18:10.244',-0.285,0.135
'18:10.247',-0.275,0.135
'18:10.250',-0.280,0.130
'18:10.253',-0.295,0.130
'18:10.256',-0.305,0.130
'18:10.258',-0.295,0.140
'18:10.261',-0.275,0.150
'18:10.264',-0.295,0.145
'18:10.267',-0.290,0.125
'18:10.269',-0.300,0.130
'18:10.272',-0.285,0.140
'18:10.275',-0.280,0.160
'18:10.278',-0.270,0.155
'18:10.281',-0.285,0.160
'18:10.283',-0.290,0.135
'18:10.286',-0.290,0.145
'18:10.289',-0.290,0.140
'18:10.292',-0.290,0.155
'18:10.294',-0.275,0.145
'18:10.297',-0.280,0.155
'18:10.300',-0.260,0.135
'18:10.303',-0.280,0.125
'18:10.306',-0.280,0.135
'18:10.308',-0.255,0.145
'18:10.311',-0.245,0.135
'18:10.314',-0.225,0.135
'18:10.317',-0.215,0.120
'18:10.319',-0.225,0.110
'18:10.322',-0.225,0.115
'18:10.325',-0.245,0.120
'18:10.328',-0.225,0.135
'18:10.331',-0.230,0.135
'18:10.333',-0.210,0.135
'18:10.336',-0.210,0.110
'18:10.339',-0.205,0.105
'18:10.342',-0.205,0.110
'18:10.344',-0.200,0.115
'18:10.347',-0.185,0.110
'18:10.350',-0.175,0.100
'18:10.353',-0.165,0.100
'18:10.356',-0.160,0.085
'18:10.358',-0.165,0.105
'18:10.361',-0.165,0.105
'18:10.364',-0.155,0.105
'18:10.367',-0.170,0.095
'18:10.369',-0.185,0.075
'18:10.372',-0.220,0.095
'18:10.375',-0.215,0.100
'18:10.378',-0.190,0.100
'18:10.381',-0.190,0.085
'18:10.383',-0.185,0.070
'18:10.386',-0.195,0.065
'18:10.389',-0.210,0.070
'18:10.392',-0.200,0.095
'18:10.394',-0.210,0.105
'18:10.397',-0.210,0.105
'18:10.400',-0.225,0.080
'18:10.403',-0.240,0.075
'18:10.406',-0.230,0.065
'18:10.408',-0.225,0.085
'18:10.411',-0.220,0.090
'18:10.414',-0.235,0.080
'18:10.417',-0.235,0.065
'18:10.419',-0.265,0.060
'18:10.422',-0.250,0.070
'18:10.425',-0.250,0.085
'18:10.428',-0.220,0.075
'18:10.431',-0.225,0.095
'18:10.433',-0.220,0.070
'18:10.436',-0.225,0.065
'18:10.439',-0.220,0.075
'18:10.442',-0.200,0.075
'18:10.444',-0.190,0.080
'18:10.447',-0.235,0.080
'18:10.450',-0.285,0.085
'18:10.453',-0.295,0.085
'18:10.456',-0.285,0.100
'18:10.458',-0.260,0.100
'18:10.461',-0.235,0.110
'18:10.464',-0.220,0.100
'18:10.467',-0.215,0.080
'18:10.469',-0.200,0.055
'18:10.472',-0.175,0.055
'18:10.475',-0.185,0.070
'18:10.478',-0.180,0.075
'18:10.481',-0.175,0.060
'18:10.483',-0.140,0.045
'18:10.486',-0.125,0.020
'18:10.489',-0.115,0.015
'18:10.492',-0.110,0.020
'18:10.494',-0.085,0.005
'18:10.497',-0.075,0.000
'18:10.500',-0.040,-0.020
'18:10.503',-0.005,-0.025
'18:10.506',0.040,-0.015
'18:10.508',0.110,-0.015
'18:10.511',0.190,-0.005
'18:10.514',0.230,-0.005
'18:10.517',0.215,-0.020
'18:10.519',0.210,-0.025
'18:10.522',0.180,0.010
'18:10.525',0.145,0.045
'18:10.528',0.040,0.110
'18:10.531',-0.220,0.175
'18:10.533',-0.660,0.260
'18:10.536',-1.130,0.355
'18:10.539',-1.510,0.450
'18:10.542',-1.790,0.535
'18:10.544',-1.925,0.595
'18:10.547',-1.975,0.625
'18:10.550',-2.005,0.645
'18:10.553',-2.010,0.650
'18:10.556',-1.960,0.670
'18:10.558',-1.885,0.685
'18:10.561',-1.855,0.695
'18:10.564',-1.835,0.705
'18:10.567',-1.765,0.685
'18:10.569',-1.610,0.655
'18:10.572',-1.465,0.650
'18:10.575',-1.375,0.635
'18:10.578',-1.330,0.645
'18:10.581',-1.285,0.655
'18:10.583',-1.205,0.640
'18:10.586',-1.110,0.630
'18:10.589',-1.035,0.640
'18:10.592',-0.965,0.645
'18:10.594',-0.890,0.630
'18:10.597',-0.820,0.620
'18:10.600',-0.750,0.610
'18:10.603',-0.670,0.555
'18:10.606',-0.585,0.535
'18:10.608',-0.540,0.520
'18:10.611',-0.535,0.485
'18:10.614',-0.550,0.480
'18:10.617',-0.555,0.455
'18:10.619',-0.515,0.435
'18:10.622',-0.470,0.385
'18:10.625',-0.425,0.345
'18:10.628',-0.375,0.320
'18:10.631',-0.305,0.275
'18:10.633',-0.220,0.225
'18:10.636',-0.135,0.155
'18:10.639',-0.070,0.100
'18:10.642',-0.015,0.055
'18:10.644',0.035,0.010
'18:10.647',0.065,-0.035
'18:10.650',0.075,-0.085
'18:10.653',0.080,-0.110
'18:10.656',0.100,-0.130
'18:10.658',0.120,-0.120
'18:10.661',0.145,-0.125
'18:10.664',0.145,-0.145
'18:10.667',0.145,-0.165
'18:10.669',0.140,-0.180
'18:10.672',0.160,-0.190
'18:10.675',0.185,-0.180
'18:10.678',0.220,-0.185
'18:10.681',0.225,-0.200
'18:10.683',0.235,-0.210
'18:10.686',0.245,-0.220
'18:10.689',0.255,-0.230
'18:10.692',0.290,-0.225
'18:10.694',0.325,-0.245
'18:10.697',0.325,-0.250
'18:10.700',0.335,-0.260
'18:10.703',0.335,-0.275
'18:10.706',0.355,-0.270
'18:10.708',0.375,-0.270
'18:10.711',0.425,-0.275
'18:10.714',0.425,-0.285
'18:10.717',0.435,-0.285
'18:10.719',0.445,-0.305
'18:10.722',0.475,-0.305
'18:10.725',0.500,-0.310
'18:10.728',0.520,-0.300
'18:10.731',0.520,-0.305
'18:10.733',0.535,-0.335
'18:10.736',0.545,-0.340
'18:10.739',0.550,-0.345
'18:10.742',0.585,-0.335
'18:10.744',0.600,-0.325
'18:10.747',0.600,-0.335
'18:10.750',0.610,-0.365
'18:10.753',0.605,-0.380
'18:10.756',0.625,-0.375
'18:10.758',0.650,-0.370
'18:10.761',0.665,-0.375
'18:10.764',0.660,-0.375
'18:10.767',0.665,-0.385
'18:10.769',0.660,-0.395
'18:10.772',0.670,-0.385
'18:10.775',0.675,-0.375
'18:10.778',0.670,-0.385
'18:10.781',0.675,-0.390
'18:10.783',0.660,-0.395
'18:10.786',0.635,-0.390
'18:10.789',0.630,-0.385
'18:10.792',0.615,-0.375
'18:10.794',0.620,-0.355
'18:10.797',0.600,-0.355
'18:10.800',0.585,-0.355
'18:10.803',0.570,-0.350
'18:10.806',0.545,-0.330
'18:10.808',0.535,-0.310
'18:10.811',0.520,-0.315
'18:10.814',0.500,-0.300
'18:10.817',0.470,-0.305
'18:10.819',0.450,-0.305
'18:10.822',0.420,-0.290
'18:10.825',0.405,-0.270
'18:10.828',0.395,-0.255
'18:10.831',0.370,-0.245
'18:10.833',0.340,-0.240
'18:10.836',0.305,-0.230
'18:10.839',0.280,-0.220
'18:10.842',0.275,-0.190
'18:10.844',0.265,-0.195
'18:10.847',0.235,-0.180
'18:10.850',0.205,-0.185
'18:10.853',0.175,-0.170
'18:10.856',0.160,-0.155
'18:10.858',0.150,-0.130
'18:10.861',0.135,-0.110
'18:10.864',0.110,-0.110
'18:10.867',0.090,-0.115
'18:10.869',0.075,-0.110
'18:10.872',0.065,-0.095
'18:10.875',0.035,-0.060
'18:10.878',0.030,-0.055
'18:10.881',0.010,-0.035
'18:10.883',-0.015,-0.030
'18:10.886',-0.030,-0.035
'18:10.889',-0.035,-0.015
'18:10.892',-0.030,-0.010
'18:10.894',-0.045,0.005
'18:10.897',-0.050,0.015
'18:10.900',-0.070,0.035
'18:10.903',-0.060,0.030
'18:10.906',-0.070,0.035
'18:10.908',-0.080,0.040
'18:10.911',-0.090,0.030
'18:10.914',-0.085,0.035
'18:10.917',-0.105,0.040
'18:10.919',-0.110,0.040
'18:10.922',-0.115,0.045
'18:10.925',-0.130,0.060
'18:10.928',-0.125,0.075
'18:10.931',-0.115,0.075
'18:10.933',-0.125,0.070
'18:10.936',-0.140,0.070
'18:10.939',-0.130,0.065
'18:10.942',-0.125,0.080
'18:10.944',-0.115,0.065
'18:10.947',-0.125,0.075
'18:10.950',-0.135,0.065
'18:10.953',-0.145,0.075
'18:10.956',-0.145,0.085
'18:10.958',-0.145,0.095
'18:10.961',-0.125,0.075
'18:10.964',-0.135,0.085
'18:10.967',-0.135,0.075
'18:10.969',-0.135,0.065
'18:10.972',-0.130,0.085
'18:10.975',-0.125,0.080
'18:10.978',-0.105,0.085
'18:10.981',-0.130,0.095
'18:10.983',-0.150,0.100
'18:10.986',-0.175,0.070
'18:10.989',-0.190,0.090
'18:10.992',-0.185,0.110
'18:10.994',-0.165,0.100
'18:10.997',-0.175,0.100
'18:11.000',-0.185,0.090
'18:11.003',-0.185,0.080
'18:11.006',-0.180,0.100
'18:11.008',-0.180,0.110
'18:11.011',-0.190,0.115
'18:11.014',-0.170,0.110
'18:11.017',-0.180,0.100
'18:11.019',-0.185,0.090
'18:11.022',-0.190,0.100
'18:11.025',-0.180,0.120
'18:11.028',-0.175,0.110
'18:11.031',-0.185,0.120
'18:11.033',-0.185,0.105
'18:11.036',-0.195,0.095
'18:11.039',-0.205,0.095
'18:11.042',-0.210,0.115
'18:11.044',-0.190,0.120
'18:11.047',-0.205,0.120
'18:11.050',-0.205,0.100
'18:11.053',-0.205,0.095
'18:11.056',-0.205,0.095
'18:11.058',-0.195,0.095
'18:11.061',-0.195,0.120
'18:11.064',-0.195,0.115
'18:11.067',-0.210,0.105
'18:11.069',-0.215,0.095
'18:11.072',-0.230,0.100
'18:11.075',-0.230,0.110
'18:11.078',-0.210,0.110
'18:11.081',-0.200,0.115
'18:11.083',-0.195,0.110
'18:11.086',-0.195,0.115
'18:11.089',-0.200,0.115
'18:11.092',-0.195,0.125
'18:11.094',-0.190,0.125
'18:11.097',-0.195,0.125
'18:11.100',-0.210,0.110
'18:11.103',-0.205,0.110
'18:11.106',-0.200,0.100
'18:11.108',-0.200,0.115
'18:11.111',-0.205,0.120
'18:11.114',-0.205,0.120
'18:11.117',-0.195,0.115
'18:11.119',-0.200,0.100
'18:11.122',-0.205,0.110
'18:11.125',-0.200,0.130
'18:11.128',-0.190,0.125
'18:11.131',-0.205,0.130
'18:11.133',-0.210,0.120
'18:11.136',-0.215,0.110
'18:11.139',-0.215,0.120
'18:11.142',-0.210,0.145
'18:11.144',-0.185,0.140
'18:11.147',-0.185,0.140
'18:11.150',-0.195,0.125
'18:11.153',-0.205,0.115
'18:11.156',-0.200,0.125
'18:11.158',-0.190,0.135
'18:11.161',-0.180,0.130
'18:11.164',-0.195,0.130
'18:11.167',-0.195,0.125
'18:11.169',-0.190,0.120
'18:11.172',-0.195,0.125
'18:11.175',-0.205,0.130
'18:11.178',-0.170,0.140
'18:11.181',-0.160,0.135
'18:11.183',-0.180,0.120
'18:11.186',-0.210,0.130
'18:11.189',-0.205,0.130
'18:11.192',-0.185,0.135
'18:11.194',-0.185,0.135
'18:11.197',-0.210,0.140
'18:11.200',-0.235,0.140
'18:11.203',-0.240,0.130
'18:11.206',-0.235,0.135
'18:11.208',-0.205,0.150
'18:11.211',-0.190,0.140
'18:11.214',-0.195,0.135
'18:11.217',-0.200,0.125
'18:11.219',-0.215,0.125
'18:11.222',-0.220,0.130
'18:11.225',-0.210,0.145
'18:11.228',-0.205,0.145
'18:11.231',-0.200,0.140
'18:11.233',-0.210,0.130
'18:11.236',-0.210,0.135
'18:11.239',-0.215,0.140
'18:11.242',-0.205,0.140
'18:11.244',-0.190,0.140
'18:11.247',-0.190,0.140
'18:11.250',-0.195,0.120
'18:11.253',-0.195,0.115
'18:11.256',-0.195,0.130
'18:11.258',-0.180,0.145
'18:11.261',-0.170,0.155
'18:11.264',-0.165,0.160
'18:11.267',-0.160,0.150
'18:11.269',-0.155,0.135
'18:11.272',-0.160,0.160
'18:11.275',-0.145,0.170
'18:11.278',-0.130,0.175
'18:11.281',-0.130,0.165
'18:11.283',-0.115,0.165
'18:11.286',-0.135,0.165
'18:11.289',-0.140,0.170
'18:11.292',-0.125,0.155
'18:11.294',-0.130,0.155
'18:11.297',-0.135,0.145
'18:11.300',-0.150,0.130
'18:11.303',-0.170,0.130
'18:11.306',-0.190,0.145
'18:11.308',-0.180,0.150
'18:11.311',-0.160,0.155
'18:11.314',-0.175,0.140
'18:11.317',-0.185,0.120
'18:11.319',-0.190,0.115
'18:11.322',-0.185,0.125
'18:11.325',-0.170,0.125
'18:11.328',-0.175,0.135
'18:11.331',-0.180,0.130
'18:11.333',-0.200,0.115
'18:11.336',-0.200,0.115
'18:11.339',-0.195,0.105
'18:11.342',-0.180,0.110
'18:11.344',-0.170,0.110
'18:11.347',-0.165,0.125
'18:11.350',-0.165,0.115
'18:11.353',-0.170,0.125
'18:11.356',-0.175,0.130
'18:11.358',-0.170,0.140
'18:11.361',-0.175,0.140
'18:11.364',-0.190,0.160
'18:11.367',-0.200,0.135
'18:11.369',-0.225,0.130
'18:11.372',-0.230,0.155
'18:11.375',-0.220,0.160
'18:11.378',-0.215,0.165
'18:11.381',-0.225,0.155
'18:11.383',-0.225,0.155
'18:11.386',-0.230,0.150
'18:11.389',-0.235,0.145
'18:11.392',-0.220,0.165
'18:11.394',-0.210,0.170
'18:11.397',-0.200,0.155
'18:11.400',-0.210,0.155
'18:11.403',-0.205,0.145
'18:11.406',-0.205,0.155
'18:11.408',-0.200,0.155
'18:11.411',-0.200,0.170
'18:11.414',-0.205,0.160
'18:11.417',-0.210,0.155
'18:11.419',-0.225,0.140
'18:11.422',-0.245,0.160
'18:11.425',-0.210,0.170
'18:11.428',-0.150,0.175
'18:11.431',-0.060,0.150
'18:11.433',0.055,0.125
'18:11.436',0.160,0.110
'18:11.439',0.260,0.105
'18:11.442',0.390,0.085
'18:11.444',0.495,0.055
'18:11.447',0.585,0.050
'18:11.450',0.690,0.005
'18:11.453',0.810,-0.055
'18:11.456',0.930,-0.135
'18:11.458',1.010,-0.200
'18:11.461',0.975,-0.235
'18:11.464',0.855,-0.260
'18:11.467',0.690,-0.285
'18:11.469',0.450,-0.295
'18:11.472',0.115,-0.230
'18:11.475',-0.235,-0.125
'18:11.478',-0.460,-0.055
'18:11.481',-0.585,-0.015
'18:11.483',-0.605,0.015
'18:11.486',-0.580,0.040
'18:11.489',-0.510,0.060
'18:11.492',-0.450,0.080
'18:11.494',-0.425,0.110
'18:11.497',-0.425,0.105
'18:11.500',-0.410,0.095
'18:11.503',-0.410,0.095
'18:11.506',-0.410,0.105
'18:11.508',-0.410,0.130
'18:11.511',-0.390,0.140
'18:11.514',-0.380,0.130
'18:11.517',-0.395,0.125
'18:11.519',-0.410,0.130
'18:11.522',-0.410,0.150
'18:11.525',-0.370,0.175
'18:11.528',-0.335,0.175
'18:11.531',-0.310,0.175
'18:11.533',-0.305,0.175
'18:11.536',-0.330,0.170
'18:11.539',-0.335,0.170
'18:11.542',-0.335,0.185
'18:11.544',-0.330,0.185
'18:11.547',-0.320,0.195
'18:11.550',-0.335,0.190
'18:11.553',-0.340,0.180
'18:11.556',-0.330,0.180
'18:11.558',-0.330,0.190
'18:11.561',-0.305,0.185
'18:11.564',-0.305,0.185
'18:11.567',-0.295,0.190
'18:11.569',-0.320,0.180
'18:11.572',-0.325,0.185
'18:11.575',-0.310,0.180
'18:11.578',-0.285,0.185
'18:11.581',-0.290,0.190
'18:11.583',-0.285,0.205
'18:11.586',-0.290,0.185
'18:11.589',-0.290,0.185
'18:11.592',-0.290,0.175
'18:11.594',-0.300,0.185
'18:11.597',-0.305,0.180
'18:11.600',-0.295,0.170
'18:11.603',-0.280,0.170
'18:11.606',-0.285,0.180
'18:11.608',-0.265,0.185
'18:11.611',-0.250,0.210
'18:11.614',-0.245,0.210
'18:11.617',-0.275,0.185
'18:11.619',-0.280,0.175
'18:11.622',-0.275,0.170
'18:11.625',-0.260,0.185
'18:11.628',-0.235,0.195
'18:11.631',-0.220,0.180
'18:11.633',-0.230,0.165
'18:11.636',-0.245,0.170
'18:11.639',-0.245,0.180
'18:11.642',-0.260,0.210
'18:11.644',-0.260,0.215
'18:11.647',-0.265,0.200
'18:11.650',-0.270,0.195
'18:11.653',-0.245,0.185
'18:11.656',-0.235,0.195
'18:11.658',-0.230,0.215
'18:11.661',-0.245,0.220
'18:11.664',-0.260,0.230
'18:11.667',-0.265,0.245
'18:11.669',-0.260,0.225
'18:11.672',-0.255,0.225
'18:11.675',-0.250,0.225
'18:11.678',-0.245,0.225
'18:11.681',-0.240,0.230
'18:11.683',-0.220,0.220
'18:11.686',-0.220,0.220
'18:11.689',-0.215,0.220
'18:11.692',-0.210,0.235
'18:11.694',-0.200,0.230
'18:11.697',-0.205,0.230
'18:11.700',-0.210,0.230
'18:11.703',-0.210,0.220
'18:11.706',-0.200,0.225
'18:11.708',-0.195,0.225
'18:11.711',-0.180,0.235
'18:11.714',-0.165,0.235
'18:11.717',-0.170,0.225
'18:11.719',-0.180,0.205
'18:11.722',-0.185,0.205
'18:11.725',-0.190,0.215
'18:11.728',-0.170,0.215
'18:11.731',-0.145,0.210
'18:11.733',-0.145,0.205
'18:11.736',-0.155,0.210
'18:11.739',-0.160,0.200
'18:11.742',-0.150,0.215
'18:11.744',-0.120,0.220
'18:11.747',-0.130,0.220
'18:11.750',-0.130,0.210
'18:11.753',-0.145,0.200
'18:11.756',-0.135,0.205
'18:11.758',-0.135,0.195
'18:11.761',-0.130,0.200
'18:11.764',-0.130,0.175
'18:11.767',-0.140,0.175
'18:11.769',-0.150,0.185
'18:11.772',-0.150,0.200
'18:11.775',-0.145,0.200
'18:11.778',-0.135,0.185
'18:11.781',-0.130,0.160
'18:11.783',-0.155,0.160
'18:11.786',-0.170,0.170
'18:11.789',-0.180,0.175
'18:11.792',-0.165,0.190
'18:11.794',-0.155,0.205
'18:11.797',-0.155,0.190
'18:11.800',-0.155,0.175
'18:11.803',-0.175,0.160
'18:11.806',-0.185,0.170
'18:11.808',-0.190,0.170
'18:11.811',-0.170,0.180
'18:11.814',-0.185,0.185
'18:11.817',-0.175,0.195
'18:11.819',-0.190,0.185
'18:11.822',-0.200,0.190
'18:11.825',-0.200,0.190
'18:11.828',-0.190,0.195
'18:11.831',-0.190,0.195
'18:11.833',-0.200,0.180
'18:11.836',-0.190,0.170
'18:11.839',-0.190,0.180
'18:11.842',-0.180,0.195
'18:11.844',-0.170,0.200
'18:11.847',-0.175,0.205
'18:11.850',-0.180,0.195
'18:11.853',-0.200,0.180
'18:11.856',-0.220,0.185
'18:11.858',-0.210,0.190
'18:11.861',-0.215,0.200
'18:11.864',-0.215,0.200
'18:11.867',-0.195,0.180
'18:11.869',-0.180,0.175
'18:11.872',-0.150,0.170
'18:11.875',-0.115,0.180
'18:11.878',-0.095,0.180
'18:11.881',-0.095,0.170
'18:11.883',-0.115,0.160
'18:11.886',-0.145,0.155
'18:11.889',-0.125,0.165
'18:11.892',-0.060,0.165
'18:11.894',-0.015,0.155
'18:11.897',0.000,0.135
'18:11.900',0.000,0.110
'18:11.903',-0.025,0.100
'18:11.906',-0.060,0.095
'18:11.908',-0.080,0.095
'18:11.911',-0.075,0.100
'18:11.914',-0.070,0.095
'18:11.917',-0.100,0.080
'18:11.919',-0.165,0.075
'18:11.922',-0.265,0.080
'18:11.925',-0.415,0.100
'18:11.928',-0.635,0.120
'18:11.931',-0.995,0.175
'18:11.933',-1.370,0.230
'18:11.936',-1.725,0.295
'18:11.939',-1.980,0.385
'18:11.942',-2.115,0.455
'18:11.944',-2.130,0.505
'18:11.947',-2.140,0.540
'18:11.950',-2.140,0.560
'18:11.953',-2.145,0.570
'18:11.956',-2.095,0.590
'18:11.958',-2.015,0.600
'18:11.961',-1.905,0.600
'18:11.964',-1.790,0.605
'18:11.967',-1.690,0.615
'18:11.969',-1.585,0.640
'18:11.972',-1.495,0.675
'18:11.975',-1.390,0.730
'18:11.978',-1.280,0.750
'18:11.981',-1.155,0.765
'18:11.983',-1.035,0.760
'18:11.986',-0.935,0.750
'18:11.989',-0.870,0.755
'18:11.992',-0.815,0.760
'18:11.994',-0.780,0.765
'18:11.997',-0.770,0.765
'18:12.000',-0.740,0.735
'18:12.003',-0.700,0.710
'18:12.006',-0.660,0.700
'18:12.008',-0.600,0.690
'18:12.011',-0.545,0.670
'18:12.014',-0.510,0.645
'18:12.017',-0.485,0.575
'18:12.019',-0.450,0.530
'18:12.022',-0.420,0.495
'18:12.025',-0.335,0.460
'18:12.028',-0.270,0.425
'18:12.031',-0.185,0.375
'18:12.033',-0.135,0.315
'18:12.036',-0.085,0.250
'18:12.039',-0.015,0.190
'18:12.042',0.060,0.150
'18:12.044',0.115,0.095
'18:12.047',0.155,0.075
'18:12.050',0.175,0.035
'18:12.053',0.190,0.020
'18:12.056',0.225,0.005
'18:12.058',0.255,0.010
'18:12.061',0.285,0.000
'18:12.064',0.285,-0.005
'18:12.067',0.285,-0.015
'18:12.069',0.275,-0.020
'18:12.072',0.270,-0.035
'18:12.075',0.270,-0.035
'18:12.078',0.295,-0.030
'18:12.081',0.310,-0.050
'18:12.083',0.320,-0.055
'18:12.086',0.320,-0.070
'18:12.089',0.330,-0.065
'18:12.092',0.350,-0.055
'18:12.094',0.390,-0.060
'18:12.097',0.410,-0.080
'18:12.100',0.425,-0.085
'18:12.103',0.440,-0.105
'18:12.106',0.440,-0.095
'18:12.108',0.465,-0.100
'18:12.111',0.500,-0.100
'18:12.114',0.525,-0.110
'18:12.117',0.535,-0.120
'18:12.119',0.540,-0.125
'18:12.122',0.525,-0.145
'18:12.125',0.580,-0.145
'18:12.128',0.615,-0.150
'18:12.131',0.640,-0.150
'18:12.133',0.645,-0.165
'18:12.136',0.635,-0.175
'18:12.139',0.615,-0.175
'18:12.142',0.625,-0.160
'18:12.144',0.645,-0.155
'18:12.147',0.655,-0.160
'18:12.150',0.660,-0.195
'18:12.153',0.665,-0.200
'18:12.156',0.685,-0.210
'18:12.158',0.695,-0.200
'18:12.161',0.715,-0.205
'18:12.164',0.700,-0.210
'18:12.167',0.690,-0.225
'18:12.169',0.670,-0.225
'18:12.172',0.650,-0.200
'18:12.175',0.655,-0.195
'18:12.178',0.670,-0.205
'18:12.181',0.675,-0.220
'18:12.183',0.655,-0.225
'18:12.186',0.635,-0.225
'18:12.189',0.620,-0.210
'18:12.192',0.595,-0.210
'18:12.194',0.595,-0.200
'18:12.197',0.570,-0.205
'18:12.200',0.550,-0.195
'18:12.203',0.520,-0.195
'18:12.206',0.495,-0.195
'18:12.208',0.480,-0.175
'18:12.211',0.470,-0.170
'18:12.214',0.450,-0.170
'18:12.217',0.410,-0.165
'18:12.219',0.380,-0.165
'18:12.222',0.350,-0.150
'18:12.225',0.330,-0.115
'18:12.228',0.300,-0.100
'18:12.231',0.280,-0.095
'18:12.233',0.250,-0.110
'18:12.236',0.230,-0.100
'18:12.239',0.200,-0.080
'18:12.242',0.165,-0.055
'18:12.244',0.160,-0.035
'18:12.247',0.135,-0.040
'18:12.250',0.105,-0.030
'18:12.253',0.075,-0.035
'18:12.256',0.045,-0.010
'18:12.258',0.030,0.005
'18:12.261',0.025,0.030
'18:12.264',0.005,0.030
'18:12.267',-0.010,0.030
'18:12.269',-0.030,0.035
'18:12.272',-0.020,0.050
'18:12.275',-0.005,0.075
'18:12.278',-0.010,0.085
'18:12.281',-0.015,0.095
'18:12.283',-0.040,0.090
'18:12.286',-0.065,0.085
'18:12.289',-0.065,0.095
'18:12.292',-0.050,0.110
'18:12.294',-0.055,0.110
'18:12.297',-0.070,0.115
'18:12.300',-0.080,0.105
'18:12.303',-0.100,0.105
'18:12.306',-0.115,0.120
'18:12.308',-0.105,0.120
'18:12.311',-0.100,0.130
'18:12.314',-0.095,0.125
'18:12.317',-0.090,0.120
'18:12.319',-0.105,0.120
'18:12.322',-0.110,0.130
'18:12.325',-0.115,0.135
'18:12.328',-0.105,0.145
'18:12.331',-0.110,0.145
'18:12.333',-0.115,0.125
'18:12.336',-0.115,0.110
'18:12.339',-0.125,0.125
'18:12.342',-0.120,0.135
'18:12.344',-0.125,0.145
'18:12.347',-0.125,0.135
'18:12.350',-0.135,0.115
'18:12.353',-0.130,0.115
'18:12.356',-0.140,0.115
'18:12.358',-0.125,0.130
'18:12.361',-0.115,0.135
'18:12.364',-0.135,0.135
'18:12.367',-0.150,0.125
'18:12.369',-0.175,0.125
'18:12.372',-0.165,0.120
'18:12.375',-0.165,0.140
'18:12.378',-0.145,0.145
'18:12.381',-0.145,0.135
'18:12.383',-0.160,0.130
'18:12.386',-0.165,0.120
'18:12.389',-0.190,0.110
'18:12.392',-0.185,0.130
'18:12.394',-0.160,0.135
'18:12.397',-0.170,0.135
'18:12.400',-0.175,0.120
'18:12.403',-0.190,0.105
'18:12.406',-0.210,0.130
'18:12.408',-0.220,0.135
'18:12.411',-0.200,0.150
'18:12.414',-0.195,0.145
'18:12.417',-0.205,0.140
'18:12.419',-0.200,0.125
'18:12.422',-0.180,0.130
'18:12.425',-0.185,0.145
'18:12.428',-0.190,0.140
'18:12.431',-0.200,0.150
'18:12.433',-0.215,0.150
'18:12.436',-0.235,0.140
'18:12.439',-0.235,0.130
'18:12.442',-0.215,0.145
'18:12.444',-0.205,0.160
'18:12.447',-0.200,0.135
'18:12.450',-0.205,0.155
'18:12.453',-0.215,0.140
'18:12.456',-0.205,0.130
'18:12.458',-0.195,0.130
'18:12.461',-0.180,0.130
'18:12.464',-0.185,0.135
'18:12.467',-0.190,0.135
'18:12.469',-0.185,0.130
'18:12.472',-0.185,0.145
'18:12.475',-0.150,0.160
'18:12.478',-0.160,0.160
'18:12.481',-0.190,0.145
'18:12.483',-0.235,0.120
'18:12.486',-0.245,0.120
'18:12.489',-0.240,0.125
'18:12.492',-0.210,0.135
'18:12.494',-0.195,0.155
'18:12.497',-0.200,0.165
'18:12.500',-0.195,0.150
'18:12.503',-0.205,0.140
'18:12.506',-0.210,0.140
'18:12.508',-0.210,0.130
'18:12.511',-0.190,0.130
'18:12.514',-0.190,0.130
'18:12.517',-0.200,0.125
'18:12.519',-0.210,0.120
'18:12.522',-0.215,0.130
'18:12.525',-0.200,0.130
'18:12.528',-0.200,0.140
'18:12.531',-0.195,0.130
'18:12.533',-0.195,0.120
'18:12.536',-0.205,0.125
'18:12.539',-0.215,0.135
'18:12.542',-0.210,0.135
'18:12.544',-0.200,0.145
'18:12.547',-0.195,0.140
'18:12.550',-0.205,0.140
'18:12.553',-0.210,0.120
'18:12.556',-0.225,0.110
'18:12.558',-0.230,0.140
'18:12.561',-0.225,0.145
'18:12.564',-0.215,0.135
'18:12.567',-0.215,0.125
'18:12.569',-0.225,0.125
'18:12.572',-0.235,0.130
'18:12.575',-0.225,0.125
'18:12.578',-0.220,0.135
'18:12.581',-0.225,0.130
'18:12.583',-0.220,0.110
'18:12.586',-0.220,0.110
'18:12.589',-0.225,0.115
'18:12.592',-0.225,0.135
'18:12.594',-0.215,0.140
'18:12.597',-0.205,0.130
'18:12.600',-0.210,0.135
'18:12.603',-0.210,0.115
'18:12.606',-0.195,0.145
'18:12.608',-0.195,0.135
'18:12.611',-0.180,0.135
'18:12.614',-0.180,0.130
'18:12.617',-0.180,0.130
'18:12.619',-0.180,0.115
'18:12.622',-0.185,0.125
'18:12.625',-0.190,0.140
'18:12.628',-0.185,0.145
'18:12.631',-0.175,0.140
'18:12.633',-0.165,0.130
'18:12.636',-0.160,0.125
'18:12.639',-0.160,0.125
'18:12.642',-0.140,0.155
'18:12.644',-0.135,0.165
'18:12.647',-0.130,0.165
'18:12.650',-0.140,0.145
'18:12.653',-0.140,0.125
'18:12.656',-0.160,0.130
'18:12.658',-0.145,0.150
'18:12.661',-0.125,0.150
'18:12.664',-0.115,0.145
'18:12.667',-0.105,0.120
'18:12.669',-0.105,0.115
'18:12.672',-0.095,0.115
'18:12.675',-0.075,0.120
'18:12.678',-0.060,0.120
'18:12.681',-0.110,0.115
'18:12.683',-0.140,0.110
'18:12.686',-0.195,0.105
'18:12.689',-0.240,0.120
'18:12.692',-0.220,0.135
'18:12.694',-0.190,0.130
'18:12.697',-0.180,0.130
'18:12.700',-0.195,0.095
'18:12.703',-0.210,0.090
'18:12.706',-0.230,0.110
'18:12.708',-0.230,0.115
'18:12.711',-0.225,0.110
'18:12.714',-0.220,0.105
'18:12.717',-0.225,0.095
'18:12.719',-0.215,0.075
'18:12.722',-0.205,0.085
'18:12.725',-0.200,0.095
'18:12.728',-0.185,0.105
'18:12.731',-0.195,0.090
'18:12.733',-0.195,0.080
'18:12.736',-0.195,0.075
'18:12.739',-0.190,0.075
'18:12.742',-0.195,0.105
'18:12.744',-0.180,0.100
'18:12.747',-0.190,0.110
'18:12.750',-0.195,0.095
'18:12.753',-0.215,0.105
'18:12.756',-0.220,0.105
'18:12.758',-0.225,0.115
'18:12.761',-0.225,0.110
'18:12.764',-0.215,0.130
'18:12.767',-0.210,0.120
'18:12.769',-0.210,0.115
'18:12.772',-0.210,0.115
'18:12.775',-0.200,0.120
'18:12.778',-0.210,0.130
'18:12.781',-0.200,0.125
'18:12.783',-0.200,0.115
'18:12.786',-0.210,0.110
'18:12.789',-0.200,0.130
'18:12.792',-0.205,0.120
'18:12.794',-0.175,0.120
'18:12.797',-0.180,0.130
'18:12.800',-0.195,0.125
'18:12.803',-0.200,0.120
'18:12.806',-0.210,0.120
'18:12.808',-0.195,0.135
'18:12.811',-0.180,0.130
'18:12.814',-0.175,0.125
'18:12.817',-0.185,0.115
'18:12.819',-0.220,0.110
'18:12.822',-0.245,0.130
'18:12.825',-0.230,0.135
'18:12.828',-0.185,0.130
'18:12.831',-0.110,0.125
'18:12.833',-0.040,0.105
'18:12.836',0.055,0.085
'18:12.839',0.145,0.070
'18:12.842',0.210,0.060
'18:12.844',0.250,0.050
'18:12.847',0.290,0.050
'18:12.850',0.340,0.055
'18:12.853',0.420,0.035
'18:12.856',0.535,0.030
'18:12.858',0.660,0.015
'18:12.861',0.790,-0.015
'18:12.864',0.900,-0.060
'18:12.867',0.995,-0.130
'18:12.869',1.050,-0.205
'18:12.872',1.050,-0.255
'18:12.875',1.005,-0.280
'18:12.878',0.920,-0.300
'18:12.881',0.795,-0.320
'18:12.883',0.585,-0.325
'18:12.886',0.265,-0.290
'18:12.889',-0.085,-0.210
'18:12.892',-0.345,-0.135
'18:12.894',-0.475,-0.095
'18:12.897',-0.540,-0.075
'18:12.900',-0.570,-0.050
'18:12.903',-0.565,-0.025
'18:12.906',-0.530,-0.010
'18:12.908',-0.485,0.025
'18:12.911',-0.430,0.035
'18:12.914',-0.410,0.050
'18:12.917',-0.415,0.045
'18:12.919',-0.415,0.035
'18:12.922',-0.410,0.025
'18:12.925',-0.400,0.045
'18:12.928',-0.390,0.055
'18:12.931',-0.390,0.070
'18:12.933',-0.405,0.065
'18:12.936',-0.415,0.060
'18:12.939',-0.410,0.075
'18:12.942',-0.385,0.090
'18:12.944',-0.370,0.095
'18:12.947',-0.360,0.105
'18:12.950',-0.350,0.095
'18:12.953',-0.345,0.090
'18:12.956',-0.325,0.095
'18:12.958',-0.310,0.115
'18:12.961',-0.285,0.120
'18:12.964',-0.290,0.110
'18:12.967',-0.300,0.110
'18:12.969',-0.310,0.105
'18:12.972',-0.320,0.100
'18:12.975',-0.305,0.125
'18:12.978',-0.285,0.130
'18:12.981',-0.275,0.120
'18:12.983',-0.285,0.120
'18:12.986',-0.285,0.115
'18:12.989',-0.295,0.115
'18:12.992',-0.295,0.135
'18:12.994',-0.280,0.135
'18:12.997',-0.285,0.135
'18:13.000',-0.295,0.120
'18:13.003',-0.285,0.100
'18:13.006',-0.280,0.110
'18:13.008',-0.285,0.120
'18:13.011',-0.265,0.120
'18:13.014',-0.255,0.125
'18:13.017',-0.255,0.105
'18:13.019',-0.265,0.085
'18:13.022',-0.290,0.100
'18:13.025',-0.265,0.115
'18:13.028',-0.255,0.120
'18:13.031',-0.250,0.125
'18:13.033',-0.260,0.100
'18:13.036',-0.255,0.095
'18:13.039',-0.265,0.100
'18:13.042',-0.250,0.110
'18:13.044',-0.240,0.115
'18:13.047',-0.245,0.115
'18:13.050',-0.250,0.115
'18:13.053',-0.260,0.100
'18:13.056',-0.260,0.110
'18:13.058',-0.245,0.100
'18:13.061',-0.235,0.115
'18:13.064',-0.255,0.125
'18:13.067',-0.255,0.100
'18:13.069',-0.265,0.100
'18:13.072',-0.270,0.110
'18:13.075',-0.265,0.125
'18:13.078',-0.260,0.140
'18:13.081',-0.250,0.130
'18:13.083',-0.255,0.120
'18:13.086',-0.250,0.115
'18:13.089',-0.245,0.115
'18:13.092',-0.240,0.135
'18:13.094',-0.240,0.130
'18:13.097',-0.245,0.145
'18:13.100',-0.245,0.140
'18:13.103',-0.260,0.125
'18:13.106',-0.250,0.145
'18:13.108',-0.245,0.155
'18:13.111',-0.230,0.150
'18:13.114',-0.225,0.155
'18:13.117',-0.230,0.140
'18:13.119',-0.235,0.140
'18:13.122',-0.240,0.150
'18:13.125',-0.230,0.170
'18:13.128',-0.220,0.160
'18:13.131',-0.210,0.165
'18:13.133',-0.225,0.150
'18:13.136',-0.230,0.145
'18:13.139',-0.245,0.150
'18:13.142',-0.235,0.155
'18:13.144',-0.215,0.170
'18:13.147',-0.210,0.155
'18:13.150',-0.210,0.150
'18:13.153',-0.225,0.150
'18:13.156',-0.225,0.160
'18:13.158',-0.210,0.165
'18:13.161',-0.195,0.170
'18:13.164',-0.195,0.170
'18:13.167',-0.210,0.160
'18:13.169',-0.205,0.140
'18:13.172',-0.195,0.150
'18:13.175',-0.175,0.145
'18:13.178',-0.150,0.145
'18:13.181',-0.150,0.145
'18:13.183',-0.145,0.145
'18:13.186',-0.145,0.130
'18:13.189',-0.150,0.140
'18:13.192',-0.130,0.135
'18:13.194',-0.120,0.135
'18:13.197',-0.120,0.130
'18:13.200',-0.120,0.120
'18:13.203',-0.120,0.110
'18:13.206',-0.140,0.125
'18:13.208',-0.130,0.125
'18:13.211',-0.110,0.120
'18:13.214',-0.110,0.110
'18:13.217',-0.110,0.100
'18:13.219',-0.125,0.090
'18:13.222',-0.130,0.100
'18:13.225',-0.115,0.105
'18:13.228',-0.120,0.110
'18:13.231',-0.130,0.105
'18:13.233',-0.130,0.080
'18:13.236',-0.130,0.085
'18:13.239',-0.135,0.090
'18:13.242',-0.135,0.090
'18:13.244',-0.120,0.100
'18:13.247',-0.120,0.100
'18:13.250',-0.140,0.095
'18:13.253',-0.145,0.080
'18:13.256',-0.165,0.085
'18:13.258',-0.165,0.100
'18:13.261',-0.155,0.110
'18:13.264',-0.165,0.110
'18:13.267',-0.160,0.110
'18:13.269',-0.170,0.095
'18:13.272',-0.180,0.100
'18:13.275',-0.195,0.105
'18:13.278',-0.180,0.115
'18:13.281',-0.170,0.105
'18:13.283',-0.180,0.110
'18:13.286',-0.175,0.115
'18:13.289',-0.165,0.100
'18:13.292',-0.145,0.110
'18:13.294',-0.115,0.090
'18:13.297',-0.130,0.090
'18:13.300',-0.170,0.085
'18:13.303',-0.220,0.075
'18:13.306',-0.245,0.110
'18:13.308',-0.210,0.115
'18:13.311',-0.155,0.105
'18:13.314',-0.155,0.115
'18:13.317',-0.200,0.100
'18:13.319',-0.250,0.110
'18:13.322',-0.290,0.120
'18:13.325',-0.295,0.135
'18:13.328',-0.270,0.150
'18:13.331',-0.260,0.125
'18:13.333',-0.250,0.120
'18:13.336',-0.245,0.115
'18:13.339',-0.245,0.115
