'Elapsed time','MLII','V1'
'hh:mm:ss.mmm','mV','mV'
'15:00.000',-0.160,-0.340
'15:00.003',-0.165,-0.350
'15:00.006',-0.160,-0.365
'15:00.008',-0.170,-0.355
'15:00.011',-0.185,-0.355
'15:00.014',-0.185,-0.350
'15:00.017',-0.185,-0.345
'15:00.019',-0.190,-0.325
'15:00.022',-0.185,-0.320
'15:00.025',-0.180,-0.325
'15:00.028',-0.190,-0.330
'15:00.031',-0.195,-0.335
'15:00.033',-0.220,-0.345
'15:00.036',-0.220,-0.345
'15:00.039',-0.230,-0.350
'15:00.042',-0.235,-0.345
'15:00.044',-0.260,-0.335
'15:00.047',-0.265,-0.325
'15:00.050',-0.275,-0.310
'15:00.053',-0.285,-0.310
'15:00.056',-0.275,-0.300
'15:00.058',-0.270,-0.310
'15:00.061',-0.270,-0.295
'15:00.064',-0.255,-0.310
'15:00.067',-0.275,-0.315
'15:00.069',-0.290,-0.315
'15:00.072',-0.290,-0.320
'15:00.075',-0.305,-0.320
'15:00.078',-0.295,-0.320
'15:00.081',-0.290,-0.315
'15:00.083',-0.280,-0.300
'15:00.086',-0.265,-0.310
'15:00.089',-0.245,-0.300
'15:00.092',-0.260,-0.305
'15:00.094',-0.255,-0.305
'15:00.097',-0.270,-0.300
'15:00.100',-0.280,-0.305
'15:00.103',-0.325,-0.315
'15:00.106',-0.340,-0.310
'15:00.108',-0.370,-0.310
'15:00.111',-0.365,-0.310
'15:00.114',-0.330,-0.315
'15:00.117',-0.245,-0.325
'15:00.119',-0.130,-0.355
'15:00.122',0.030,-0.395
'15:00.125',0.220,-0.450
'15:00.128',0.455,-0.495
'15:00.131',0.690,-0.520
'15:00.133',0.890,-0.515
'15:00.136',1.005,-0.475
'15:00.139',0.975,-0.420
'15:00.142',0.795,-0.345
'15:00.144',0.490,-0.290
'15:00.147',0.180,-0.225
'15:00.150',-0.090,-0.180
'15:00.153',-0.260,-0.185
'15:00.156',-0.305,-0.200
'15:00.158',-0.275,-0.245
'15:00.161',-0.210,-0.290
'15:00.164',-0.170,-0.340
'15:00.167',-0.155,-0.360
'15:00.169',-0.150,-0.375
'15:00.172',-0.170,-0.370
'15:00.175',-0.195,-0.345
'15:00.178',-0.215,-0.335
'15:00.181',-0.235,-0.330
'15:00.183',-0.245,-0.320
'15:00.186',-0.250,-0.300
'15:00.189',-0.240,-0.300
'15:00.192',-0.240,-0.300
'15:00.194',-0.235,-0.300
'15:00.197',-0.240,-0.310
'15:00.200',-0.250,-0.305
'15:00.203',-0.265,-0.305
'15:00.206',-0.265,-0.320
'15:00.208',-0.265,-0.305
'15:00.211',-0.260,-0.305
'15:00.214',-0.255,-0.295
'15:00.217',-0.245,-0.295
'15:00.219',-0.245,-0.290
'15:00.222',-0.235,-0.290
'15:00.225',-0.235,-0.305
'15:00.228',-0.235,-0.315
'15:00.231',-0.230,-0.305
'15:00.233',-0.230,-0.315
'15:00.236',-0.225,-0.330
'15:00.239',-0.235,-0.330
'15:00.242',-0.235,-0.335
'15:00.244',-0.245,-0.320
'15:00.247',-0.250,-0.310
'15:00.250',-0.250,-0.305
'15:00.253',-0.240,-0.300
'15:00.256',-0.240,-0.285
'15:00.258',-0.235,-0.305
'15:00.261',-0.220,-0.300
'15:00.264',-0.225,-0.310
'15:00.267',-0.230,-0.315
'15:00.269',-0.225,-0.330
'15:00.272',-0.230,-0.335
'15:00.275',-0.235,-0.335
'15:00.278',-0.240,-0.325
'15:00.281',-0.235,-0.320
'15:00.283',-0.225,-0.315
'15:00.286',-0.220,-0.325
'15:00.289',-0.220,-0.320
'15:00.292',-0.215,-0.325
'15:00.294',-0.215,-0.320
'15:00.297',-0.215,-0.330
'15:00.300',-0.215,-0.335
'15:00.303',-0.215,-0.345
'15:00.306',-0.220,-0.350
'15:00.308',-0.220,-0.345
'15:00.311',-0.225,-0.345
'15:00.314',-0.225,-0.335
'15:00.317',-0.205,-0.330
'15:00.319',-0.200,-0.325
'15:00.322',-0.190,-0.320
'15:00.325',-0.200,-0.330
'15:00.328',-0.195,-0.325
'15:00.331',-0.200,-0.330
'15:00.333',-0.205,-0.340
'15:00.336',-0.215,-0.350
'15:00.339',-0.220,-0.350
'15:00.342',-0.220,-0.355
'15:00.344',-0.210,-0.345
'15:00.347',-0.210,-0.330
'15:00.350',-0.205,-0.340
'15:00.353',-0.200,-0.335
'15:00.356',-0.195,-0.340
'15:00.358',-0.200,-0.350
'15:00.361',-0.190,-0.345
'15:00.364',-0.200,-0.360
'15:00.367',-0.200,-0.360
'15:00.369',-0.200,-0.370
'15:00.372',-0.215,-0.375
'15:00.375',-0.215,-0.370
'15:00.378',-0.205,-0.365
'15:00.381',-0.180,-0.370
'15:00.383',-0.180,-0.355
'15:00.386',-0.170,-0.345
'15:00.389',-0.165,-0.345
'15:00.392',-0.165,-0.350
'15:00.394',-0.160,-0.350
'15:00.397',-0.165,-0.355
'15:00.400',-0.160,-0.365
'15:00.403',-0.165,-0.375
'15:00.406',-0.170,-0.375
'15:00.408',-0.160,-0.375
'15:00.411',-0.150,-0.370
'15:00.414',-0.145,-0.365
'15:00.417',-0.130,-0.355
'15:00.419',-0.120,-0.345
'15:00.422',-0.125,-0.350
'15:00.425',-0.125,-0.350
'15:00.428',-0.120,-0.360
'15:00.431',-0.125,-0.355
'15:00.433',-0.140,-0.350
'15:00.436',-0.150,-0.345
'15:00.439',-0.150,-0.360
'15:00.442',-0.170,-0.350
'15:00.444',-0.180,-0.335
'15:00.447',-0.180,-0.335
'15:00.450',-0.180,-0.325
'15:00.453',-0.175,-0.315
'15:00.456',-0.175,-0.305
'15:00.458',-0.180,-0.310
'15:00.461',-0.175,-0.300
'15:00.464',-0.195,-0.315
'15:00.467',-0.205,-0.310
'15:00.469',-0.210,-0.325
'15:00.472',-0.220,-0.325
'15:00.475',-0.230,-0.330
'15:00.478',-0.235,-0.320
'15:00.481',-0.225,-0.295
'15:00.483',-0.230,-0.290
'15:00.486',-0.225,-0.285
'15:00.489',-0.220,-0.275
'15:00.492',-0.220,-0.270
'15:00.494',-0.220,-0.270
'15:00.497',-0.225,-0.280
'15:00.500',-0.235,-0.290
'15:00.503',-0.245,-0.290
'15:00.506',-0.250,-0.305
'15:00.508',-0.255,-0.295
'15:00.511',-0.260,-0.285
'15:00.514',-0.250,-0.275
'15:00.517',-0.235,-0.280
'15:00.519',-0.225,-0.265
'15:00.522',-0.220,-0.265
'15:00.525',-0.220,-0.280
'15:00.528',-0.225,-0.270
'15:00.531',-0.230,-0.280
'15:00.533',-0.250,-0.285
'15:00.536',-0.250,-0.285
'15:00.539',-0.260,-0.305
'15:00.542',-0.260,-0.275
'15:00.544',-0.255,-0.285
'15:00.547',-0.250,-0.275
'15:00.550',-0.245,-0.280
'15:00.553',-0.240,-0.265
'15:00.556',-0.235,-0.265
'15:00.558',-0.240,-0.265
'15:00.561',-0.245,-0.265
'15:00.564',-0.250,-0.275
'15:00.567',-0.260,-0.280
'15:00.569',-0.260,-0.290
'15:00.572',-0.260,-0.290
'15:00.575',-0.275,-0.285
'15:00.578',-0.280,-0.290
'15:00.581',-0.275,-0.290
'15:00.583',-0.260,-0.265
'15:00.586',-0.260,-0.265
'15:00.589',-0.255,-0.250
'15:00.592',-0.250,-0.260
'15:00.594',-0.260,-0.270
'15:00.597',-0.270,-0.265
'15:00.600',-0.270,-0.275
'15:00.603',-0.270,-0.275
'15:00.606',-0.280,-0.300
'15:00.608',-0.285,-0.290
'15:00.611',-0.285,-0.285
'15:00.614',-0.270,-0.280
'15:00.617',-0.255,-0.260
'15:00.619',-0.245,-0.250
'15:00.622',-0.225,-0.250
'15:00.625',-0.220,-0.245
'15:00.628',-0.210,-0.240
'15:00.631',-0.210,-0.250
'15:00.633',-0.230,-0.245
'15:00.636',-0.215,-0.250
'15:00.639',-0.220,-0.255
'15:00.642',-0.230,-0.245
'15:00.644',-0.215,-0.255
'15:00.647',-0.200,-0.250
'15:00.650',-0.190,-0.250
'15:00.653',-0.175,-0.270
'15:00.656',-0.165,-0.275
'15:00.658',-0.175,-0.290
'15:00.661',-0.170,-0.285
'15:00.664',-0.195,-0.305
'15:00.667',-0.200,-0.305
'15:00.669',-0.215,-0.315
'15:00.672',-0.230,-0.325
'15:00.675',-0.225,-0.310
'15:00.678',-0.250,-0.300
'15:00.681',-0.235,-0.295
'15:00.683',-0.225,-0.295
'15:00.686',-0.235,-0.290
'15:00.689',-0.240,-0.280
'15:00.692',-0.230,-0.280
'15:00.694',-0.240,-0.280
'15:00.697',-0.255,-0.285
'15:00.700',-0.260,-0.285
'15:00.703',-0.285,-0.300
'15:00.706',-0.305,-0.300
'15:00.708',-0.320,-0.290
'15:00.711',-0.340,-0.280
'15:00.714',-0.335,-0.275
'15:00.717',-0.305,-0.265
'15:00.719',-0.300,-0.265
'15:00.722',-0.285,-0.265
'15:00.725',-0.280,-0.270
'15:00.728',-0.285,-0.245
'15:00.731',-0.285,-0.250
'15:00.733',-0.300,-0.265
'15:00.736',-0.310,-0.280
'15:00.739',-0.315,-0.285
'15:00.742',-0.330,-0.285
'15:00.744',-0.320,-0.280
'15:00.747',-0.320,-0.285
'15:00.750',-0.295,-0.275
'15:00.753',-0.300,-0.270
'15:00.756',-0.285,-0.260
'15:00.758',-0.300,-0.270
'15:00.761',-0.315,-0.255
'15:00.764',-0.340,-0.255
'15:00.767',-0.350,-0.260
'15:00.769',-0.350,-0.270
'15:00.772',-0.305,-0.290
'15:00.775',-0.225,-0.325
'15:00.778',-0.105,-0.360
'15:00.781',0.055,-0.405
'15:00.783',0.255,-0.440
'15:00.786',0.455,-0.460
'15:00.789',0.660,-0.460
'15:00.792',0.825,-0.455
'15:00.794',0.930,-0.420
'15:00.797',0.905,-0.385
'15:00.800',0.735,-0.330
'15:00.803',0.480,-0.265
'15:00.806',0.180,-0.215
'15:00.808',-0.080,-0.185
'15:00.811',-0.255,-0.185
'15:00.814',-0.315,-0.210
'15:00.817',-0.295,-0.250
'15:00.819',-0.225,-0.290
'15:00.822',-0.155,-0.310
'15:00.825',-0.130,-0.320
'15:00.828',-0.125,-0.325
'15:00.831',-0.140,-0.310
'15:00.833',-0.180,-0.305
'15:00.836',-0.210,-0.295
'15:00.839',-0.245,-0.295
'15:00.842',-0.270,-0.290
'15:00.844',-0.285,-0.295
'15:00.847',-0.280,-0.285
'15:00.850',-0.265,-0.270
'15:00.853',-0.260,-0.265
'15:00.856',-0.270,-0.270
'15:00.858',-0.265,-0.250
'15:00.861',-0.270,-0.265
'15:00.864',-0.285,-0.270
'15:00.867',-0.285,-0.285
'15:00.869',-0.295,-0.295
'15:00.872',-0.300,-0.295
'15:00.875',-0.300,-0.295
'15:00.878',-0.295,-0.285
'15:00.881',-0.295,-0.275
'15:00.883',-0.285,-0.265
'15:00.886',-0.285,-0.255
'15:00.889',-0.280,-0.255
'15:00.892',-0.275,-0.265
'15:00.894',-0.275,-0.270
'15:00.897',-0.265,-0.275
'15:00.900',-0.275,-0.275
'15:00.903',-0.280,-0.280
'15:00.906',-0.285,-0.285
'15:00.908',-0.290,-0.290
'15:00.911',-0.305,-0.285
'15:00.914',-0.295,-0.285
'15:00.917',-0.280,-0.270
'15:00.919',-0.280,-0.265
'15:00.922',-0.270,-0.255
'15:00.925',-0.270,-0.260
'15:00.928',-0.265,-0.260
'15:00.931',-0.260,-0.275
'15:00.933',-0.255,-0.275
'15:00.936',-0.270,-0.285
'15:00.939',-0.280,-0.300
'15:00.942',-0.275,-0.300
'15:00.944',-0.285,-0.295
'15:00.947',-0.280,-0.285
'15:00.950',-0.270,-0.285
'15:00.953',-0.260,-0.275
'15:00.956',-0.250,-0.275
'15:00.958',-0.250,-0.280
'15:00.961',-0.245,-0.280
'15:00.964',-0.250,-0.290
'15:00.967',-0.260,-0.310
'15:00.969',-0.260,-0.310
'15:00.972',-0.260,-0.310
'15:00.975',-0.275,-0.305
'15:00.978',-0.270,-0.310
'15:00.981',-0.265,-0.300
'15:00.983',-0.255,-0.300
'15:00.986',-0.255,-0.295
'15:00.989',-0.240,-0.300
'15:00.992',-0.245,-0.305
'15:00.994',-0.235,-0.300
'15:00.997',-0.240,-0.310
'15:01.000',-0.235,-0.320
'15:01.003',-0.250,-0.325
'15:01.006',-0.250,-0.330
'15:01.008',-0.260,-0.330
'15:01.011',-0.255,-0.335
'15:01.014',-0.250,-0.325
'15:01.017',-0.240,-0.310
'15:01.019',-0.225,-0.300
'15:01.022',-0.220,-0.315
'15:01.025',-0.225,-0.310
'15:01.028',-0.215,-0.320
'15:01.031',-0.240,-0.330
'15:01.033',-0.245,-0.335
'15:01.036',-0.250,-0.340
'15:01.039',-0.250,-0.345
'15:01.042',-0.255,-0.360
'15:01.044',-0.255,-0.350
'15:01.047',-0.260,-0.350
'15:01.050',-0.245,-0.345
'15:01.053',-0.230,-0.335
'15:01.056',-0.225,-0.335
'15:01.058',-0.205,-0.335
'15:01.061',-0.200,-0.345
'15:01.064',-0.210,-0.345
'15:01.067',-0.205,-0.355
'15:01.069',-0.205,-0.370
'15:01.072',-0.205,-0.365
'15:01.075',-0.210,-0.365
'15:01.078',-0.200,-0.360
'15:01.081',-0.190,-0.360
'15:01.083',-0.180,-0.350
'15:01.086',-0.170,-0.340
'15:01.089',-0.155,-0.330
'15:01.092',-0.150,-0.340
'15:01.094',-0.155,-0.340
'15:01.097',-0.160,-0.345
'15:01.100',-0.170,-0.355
'15:01.103',-0.180,-0.355
'15:01.106',-0.195,-0.340
'15:01.108',-0.195,-0.345
'15:01.111',-0.210,-0.330
'15:01.114',-0.210,-0.320
'15:01.117',-0.205,-0.310
'15:01.119',-0.210,-0.310
'15:01.122',-0.200,-0.300
'15:01.125',-0.200,-0.290
'15:01.128',-0.205,-0.295
'15:01.131',-0.215,-0.300
'15:01.133',-0.230,-0.295
'15:01.136',-0.240,-0.315
'15:01.139',-0.255,-0.315
'15:01.142',-0.255,-0.305
'15:01.144',-0.265,-0.305
'15:01.147',-0.260,-0.295
'15:01.150',-0.255,-0.285
'15:01.153',-0.260,-0.285
'15:01.156',-0.255,-0.270
'15:01.158',-0.250,-0.285
'15:01.161',-0.260,-0.285
'15:01.164',-0.270,-0.290
'15:01.167',-0.270,-0.290
'15:01.169',-0.270,-0.295
'15:01.172',-0.275,-0.295
'15:01.175',-0.275,-0.305
'15:01.178',-0.280,-0.290
'15:01.181',-0.285,-0.300
'15:01.183',-0.285,-0.290
'15:01.186',-0.280,-0.285
'15:01.189',-0.290,-0.275
'15:01.192',-0.285,-0.265
'15:01.194',-0.290,-0.270
'15:01.197',-0.285,-0.275
'15:01.200',-0.285,-0.270
'15:01.203',-0.290,-0.285
'15:01.206',-0.300,-0.280
'15:01.208',-0.295,-0.280
'15:01.211',-0.305,-0.280
'15:01.214',-0.300,-0.270
'15:01.217',-0.280,-0.245
'15:01.219',-0.285,-0.235
'15:01.222',-0.280,-0.245
'15:01.225',-0.285,-0.240
'15:01.228',-0.290,-0.245
'15:01.231',-0.290,-0.255
'15:01.233',-0.295,-0.265
'15:01.236',-0.300,-0.270
'15:01.239',-0.315,-0.270
'15:01.242',-0.310,-0.270
'15:01.244',-0.315,-0.270
'15:01.247',-0.300,-0.275
'15:01.250',-0.295,-0.265
'15:01.253',-0.295,-0.250
'15:01.256',-0.285,-0.250
'15:01.258',-0.290,-0.260
'15:01.261',-0.300,-0.255
'15:01.264',-0.300,-0.265
'15:01.267',-0.315,-0.265
'15:01.269',-0.305,-0.280
'15:01.272',-0.305,-0.275
'15:01.275',-0.305,-0.280
'15:01.278',-0.310,-0.280
'15:01.281',-0.310,-0.270
'15:01.283',-0.295,-0.260
'15:01.286',-0.295,-0.245
'15:01.289',-0.295,-0.240
'15:01.292',-0.300,-0.250
'15:01.294',-0.305,-0.250
'15:01.297',-0.315,-0.265
'15:01.300',-0.315,-0.255
'15:01.303',-0.315,-0.275
'15:01.306',-0.315,-0.270
'15:01.308',-0.320,-0.260
'15:01.311',-0.325,-0.260
'15:01.314',-0.325,-0.250
'15:01.317',-0.315,-0.250
'15:01.319',-0.300,-0.245
'15:01.322',-0.280,-0.240
'15:01.325',-0.265,-0.240
'15:01.328',-0.255,-0.245
'15:01.331',-0.250,-0.230
'15:01.333',-0.245,-0.235
'15:01.336',-0.260,-0.240
'15:01.339',-0.265,-0.245
'15:01.342',-0.270,-0.240
'15:01.344',-0.270,-0.240
'15:01.347',-0.260,-0.225
'15:01.350',-0.260,-0.220
'15:01.353',-0.240,-0.205
'15:01.356',-0.220,-0.230
'15:01.358',-0.205,-0.230
'15:01.361',-0.195,-0.235
'15:01.364',-0.195,-0.265
'15:01.367',-0.195,-0.285
'15:01.369',-0.205,-0.295
'15:01.372',-0.225,-0.300
'15:01.375',-0.240,-0.310
'15:01.378',-0.260,-0.310
'15:01.381',-0.270,-0.305
'15:01.383',-0.250,-0.280
'15:01.386',-0.250,-0.280
'15:01.389',-0.245,-0.265
'15:01.392',-0.250,-0.265
'15:01.394',-0.250,-0.265
'15:01.397',-0.275,-0.280
'15:01.400',-0.290,-0.285
'15:01.403',-0.305,-0.290
'15:01.406',-0.310,-0.290
'15:01.408',-0.305,-0.290
'15:01.411',-0.320,-0.285
'15:01.414',-0.315,-0.265
'15:01.417',-0.325,-0.250
'15:01.419',-0.315,-0.250
'15:01.422',-0.310,-0.240
'15:01.425',-0.325,-0.240
'15:01.428',-0.325,-0.255
'15:01.431',-0.335,-0.250
'15:01.433',-0.335,-0.265
'15:01.436',-0.340,-0.265
'15:01.439',-0.335,-0.285
'15:01.442',-0.340,-0.285
'15:01.444',-0.345,-0.280
'15:01.447',-0.345,-0.275
'15:01.450',-0.335,-0.250
'15:01.453',-0.325,-0.255
'15:01.456',-0.320,-0.250
'15:01.458',-0.310,-0.255
'15:01.461',-0.305,-0.255
'15:01.464',-0.305,-0.275
'15:01.467',-0.315,-0.280
'15:01.469',-0.335,-0.285
'15:01.472',-0.355,-0.275
'15:01.475',-0.380,-0.275
'15:01.478',-0.395,-0.275
'15:01.481',-0.360,-0.265
'15:01.483',-0.295,-0.270
'15:01.486',-0.200,-0.310
'15:01.489',-0.070,-0.345
'15:01.492',0.100,-0.410
'15:01.494',0.300,-0.465
'15:01.497',0.505,-0.495
'15:01.500',0.705,-0.500
'15:01.503',0.835,-0.485
'15:01.506',0.880,-0.425
'15:01.508',0.790,-0.365
'15:01.511',0.585,-0.300
'15:01.514',0.315,-0.230
'15:01.517',0.045,-0.180
'15:01.519',-0.170,-0.155
'15:01.522',-0.295,-0.160
'15:01.525',-0.320,-0.205
'15:01.528',-0.290,-0.260
'15:01.531',-0.240,-0.300
'15:01.533',-0.200,-0.335
'15:01.536',-0.190,-0.350
'15:01.539',-0.190,-0.340
'15:01.542',-0.210,-0.340
'15:01.544',-0.235,-0.315
'15:01.547',-0.255,-0.290
'15:01.550',-0.270,-0.290
'15:01.553',-0.285,-0.280
'15:01.556',-0.285,-0.275
'15:01.558',-0.295,-0.275
'15:01.561',-0.290,-0.285
'15:01.564',-0.295,-0.285
'15:01.567',-0.305,-0.290
'15:01.569',-0.310,-0.300
'15:01.572',-0.320,-0.305
'15:01.575',-0.330,-0.305
'15:01.578',-0.335,-0.300
'15:01.581',-0.330,-0.275
'15:01.583',-0.325,-0.280
'15:01.586',-0.310,-0.275
'15:01.589',-0.295,-0.280
'15:01.592',-0.295,-0.270
'15:01.594',-0.290,-0.270
'15:01.597',-0.300,-0.280
'15:01.600',-0.310,-0.290
'15:01.603',-0.315,-0.290
'15:01.606',-0.320,-0.300
'15:01.608',-0.315,-0.295
'15:01.611',-0.315,-0.295
'15:01.614',-0.310,-0.285
'15:01.617',-0.305,-0.285
'15:01.619',-0.305,-0.280
'15:01.622',-0.285,-0.280
'15:01.625',-0.280,-0.285
'15:01.628',-0.275,-0.280
'15:01.631',-0.275,-0.280
'15:01.633',-0.285,-0.305
'15:01.636',-0.290,-0.305
'15:01.639',-0.295,-0.300
'15:01.642',-0.285,-0.305
'15:01.644',-0.295,-0.305
'15:01.647',-0.285,-0.305
'15:01.650',-0.280,-0.295
'15:01.653',-0.260,-0.285
'15:01.656',-0.265,-0.275
'15:01.658',-0.255,-0.290
'15:01.661',-0.255,-0.300
'15:01.664',-0.260,-0.305
'15:01.667',-0.260,-0.315
'15:01.669',-0.270,-0.325
'15:01.672',-0.275,-0.315
'15:01.675',-0.280,-0.325
'15:01.678',-0.285,-0.320
'15:01.681',-0.265,-0.320
'15:01.683',-0.270,-0.325
'15:01.686',-0.255,-0.300
'15:01.689',-0.255,-0.310
'15:01.692',-0.245,-0.310
'15:01.694',-0.240,-0.315
'15:01.697',-0.235,-0.320
'15:01.700',-0.245,-0.330
'15:01.703',-0.245,-0.330
'15:01.706',-0.250,-0.345
'15:01.708',-0.255,-0.355
'15:01.711',-0.260,-0.340
'15:01.714',-0.255,-0.345
'15:01.717',-0.245,-0.345
'15:01.719',-0.255,-0.340
'15:01.722',-0.245,-0.315
'15:01.725',-0.250,-0.335
'15:01.728',-0.245,-0.345
'15:01.731',-0.235,-0.340
'15:01.733',-0.245,-0.350
'15:01.736',-0.250,-0.365
'15:01.739',-0.260,-0.370
'15:01.742',-0.265,-0.365
'15:01.744',-0.260,-0.375
'15:01.747',-0.255,-0.365
'15:01.750',-0.260,-0.360
'15:01.753',-0.250,-0.350
'15:01.756',-0.255,-0.355
'15:01.758',-0.245,-0.350
'15:01.761',-0.235,-0.360
'15:01.764',-0.235,-0.370
'15:01.767',-0.240,-0.360
'15:01.769',-0.230,-0.380
'15:01.772',-0.235,-0.390
'15:01.775',-0.230,-0.390
'15:01.778',-0.220,-0.390
'15:01.781',-0.215,-0.385
'15:01.783',-0.200,-0.385
'15:01.786',-0.190,-0.380
'15:01.789',-0.175,-0.380
'15:01.792',-0.170,-0.365
'15:01.794',-0.160,-0.375
'15:01.797',-0.165,-0.375
'15:01.800',-0.155,-0.385
'15:01.803',-0.170,-0.380
'15:01.806',-0.170,-0.380
'15:01.808',-0.170,-0.390
'15:01.811',-0.180,-0.385
'15:01.814',-0.180,-0.385
'15:01.817',-0.190,-0.365
'15:01.819',-0.195,-0.360
'15:01.822',-0.200,-0.340
'15:01.825',-0.195,-0.340
'15:01.828',-0.200,-0.345
'15:01.831',-0.200,-0.340
'15:01.833',-0.215,-0.350
'15:01.836',-0.220,-0.350
'15:01.839',-0.235,-0.350
'15:01.842',-0.250,-0.355
'15:01.844',-0.255,-0.340
'15:01.847',-0.265,-0.330
'15:01.850',-0.270,-0.315
'15:01.853',-0.255,-0.310
'15:01.856',-0.255,-0.315
'15:01.858',-0.245,-0.300
'15:01.861',-0.245,-0.315
'15:01.864',-0.260,-0.315
'15:01.867',-0.270,-0.320
'15:01.869',-0.270,-0.325
'15:01.872',-0.290,-0.325
'15:01.875',-0.295,-0.330
'15:01.878',-0.300,-0.330
'15:01.881',-0.300,-0.320
'15:01.883',-0.290,-0.315
'15:01.886',-0.290,-0.290
'15:01.889',-0.280,-0.300
'15:01.892',-0.280,-0.300
'15:01.894',-0.280,-0.295
'15:01.897',-0.280,-0.310
'15:01.900',-0.295,-0.305
'15:01.903',-0.300,-0.320
'15:01.906',-0.320,-0.320
'15:01.908',-0.305,-0.315
'15:01.911',-0.305,-0.320
'15:01.914',-0.300,-0.315
'15:01.917',-0.300,-0.305
'15:01.919',-0.300,-0.305
'15:01.922',-0.295,-0.290
'15:01.925',-0.295,-0.295
'15:01.928',-0.290,-0.300
'15:01.931',-0.295,-0.310
'15:01.933',-0.310,-0.315
'15:01.936',-0.315,-0.315
'15:01.939',-0.320,-0.315
'15:01.942',-0.325,-0.315
'15:01.944',-0.330,-0.320
'15:01.947',-0.330,-0.310
'15:01.950',-0.325,-0.305
'15:01.953',-0.320,-0.300
'15:01.956',-0.310,-0.290
'15:01.958',-0.315,-0.285
'15:01.961',-0.315,-0.300
'15:01.964',-0.305,-0.305
'15:01.967',-0.310,-0.300
'15:01.969',-0.320,-0.315
'15:01.972',-0.325,-0.315
'15:01.975',-0.335,-0.320
'15:01.978',-0.330,-0.310
'15:01.981',-0.330,-0.305
'15:01.983',-0.335,-0.305
'15:01.986',-0.325,-0.295
'15:01.989',-0.320,-0.285
'15:01.992',-0.320,-0.280
'15:01.994',-0.325,-0.285
'15:01.997',-0.320,-0.290
'15:02.000',-0.325,-0.305
'15:02.003',-0.325,-0.315
'15:02.006',-0.320,-0.330
'15:02.008',-0.330,-0.315
'15:02.011',-0.330,-0.305
'15:02.014',-0.320,-0.310
'15:02.017',-0.300,-0.305
'15:02.019',-0.280,-0.295
'15:02.022',-0.275,-0.280
'15:02.025',-0.265,-0.285
'15:02.028',-0.255,-0.275
'15:02.031',-0.265,-0.275
'15:02.033',-0.265,-0.280
'15:02.036',-0.265,-0.290
'15:02.039',-0.265,-0.295
'15:02.042',-0.265,-0.300
'15:02.044',-0.270,-0.320
'15:02.047',-0.260,-0.320
'15:02.050',-0.245,-0.325
'15:02.053',-0.235,-0.320
'15:02.056',-0.245,-0.325
'15:02.058',-0.255,-0.330
'15:02.061',-0.265,-0.320
'15:02.064',-0.275,-0.330
'15:02.067',-0.285,-0.325
'15:02.069',-0.285,-0.325
'15:02.072',-0.290,-0.330
'15:02.075',-0.295,-0.330
'15:02.078',-0.310,-0.335
'15:02.081',-0.315,-0.335
'15:02.083',-0.320,-0.320
'15:02.086',-0.325,-0.300
'15:02.089',-0.320,-0.285
'15:02.092',-0.320,-0.285
'15:02.094',-0.330,-0.295
'15:02.097',-0.340,-0.285
'15:02.100',-0.360,-0.285
'15:02.103',-0.365,-0.300
'15:02.106',-0.370,-0.315
'15:02.108',-0.375,-0.310
'15:02.111',-0.380,-0.305
'15:02.114',-0.370,-0.300
'15:02.117',-0.370,-0.285
'15:02.119',-0.360,-0.275
'15:02.122',-0.360,-0.275
'15:02.125',-0.355,-0.275
'15:02.128',-0.350,-0.280
'15:02.131',-0.355,-0.280
'15:02.133',-0.365,-0.290
'15:02.136',-0.365,-0.310
'15:02.139',-0.370,-0.310
'15:02.142',-0.375,-0.305
'15:02.144',-0.375,-0.305
'15:02.147',-0.370,-0.295
'15:02.150',-0.380,-0.290
'15:02.153',-0.395,-0.285
'15:02.156',-0.400,-0.270
'15:02.158',-0.425,-0.270
'15:02.161',-0.425,-0.285
'15:02.164',-0.400,-0.290
'15:02.167',-0.345,-0.325
'15:02.169',-0.265,-0.355
'15:02.172',-0.145,-0.395
'15:02.175',0.000,-0.460
'15:02.178',0.165,-0.510
'15:02.181',0.375,-0.545
'15:02.183',0.580,-0.555
'15:02.186',0.765,-0.535
'15:02.189',0.880,-0.485
'15:02.192',0.885,-0.430
'15:02.194',0.760,-0.380
'15:02.197',0.525,-0.305
'15:02.200',0.245,-0.250
'15:02.203',-0.045,-0.205
'15:02.206',-0.245,-0.180
'15:02.208',-0.375,-0.185
'15:02.211',-0.410,-0.200
'15:02.214',-0.380,-0.230
'15:02.217',-0.320,-0.280
'15:02.219',-0.275,-0.310
'15:02.222',-0.245,-0.325
'15:02.225',-0.235,-0.340
'15:02.228',-0.240,-0.330
'15:02.231',-0.250,-0.325
'15:02.233',-0.280,-0.315
'15:02.236',-0.310,-0.320
'15:02.239',-0.330,-0.315
'15:02.242',-0.340,-0.320
'15:02.244',-0.355,-0.320
'15:02.247',-0.345,-0.310
'15:02.250',-0.340,-0.300
'15:02.253',-0.335,-0.305
'15:02.256',-0.320,-0.290
'15:02.258',-0.330,-0.285
'15:02.261',-0.335,-0.295
'15:02.264',-0.335,-0.290
'15:02.267',-0.345,-0.300
'15:02.269',-0.355,-0.305
'15:02.272',-0.350,-0.305
'15:02.275',-0.355,-0.315
'15:02.278',-0.355,-0.310
'15:02.281',-0.345,-0.310
'15:02.283',-0.340,-0.300
'15:02.286',-0.330,-0.295
'15:02.289',-0.325,-0.295
'15:02.292',-0.320,-0.305
'15:02.294',-0.315,-0.300
'15:02.297',-0.310,-0.300
'15:02.300',-0.320,-0.315
'15:02.303',-0.320,-0.320
'15:02.306',-0.330,-0.325
'15:02.308',-0.330,-0.330
'15:02.311',-0.325,-0.325
'15:02.314',-0.325,-0.320
'15:02.317',-0.310,-0.315
'15:02.319',-0.300,-0.310
'15:02.322',-0.295,-0.300
'15:02.325',-0.290,-0.310
'15:02.328',-0.290,-0.315
'15:02.331',-0.290,-0.315
'15:02.333',-0.300,-0.325
'15:02.336',-0.295,-0.330
'15:02.339',-0.305,-0.340
'15:02.342',-0.305,-0.340
'15:02.344',-0.305,-0.335
'15:02.347',-0.295,-0.335
'15:02.350',-0.290,-0.330
'15:02.353',-0.290,-0.335
'15:02.356',-0.280,-0.320
'15:02.358',-0.285,-0.320
'15:02.361',-0.280,-0.330
'15:02.364',-0.285,-0.325
'15:02.367',-0.280,-0.335
'15:02.369',-0.280,-0.355
'15:02.372',-0.295,-0.355
'15:02.375',-0.285,-0.365
'15:02.378',-0.290,-0.350
'15:02.381',-0.275,-0.355
'15:02.383',-0.280,-0.360
'15:02.386',-0.275,-0.355
'15:02.389',-0.275,-0.350
'15:02.392',-0.270,-0.350
'15:02.394',-0.260,-0.355
'15:02.397',-0.275,-0.345
'15:02.400',-0.275,-0.355
'15:02.403',-0.280,-0.365
'15:02.406',-0.295,-0.375
'15:02.408',-0.290,-0.380
'15:02.411',-0.295,-0.380
'15:02.414',-0.295,-0.370
'15:02.417',-0.285,-0.355
'15:02.419',-0.275,-0.350
'15:02.422',-0.270,-0.350
'15:02.425',-0.265,-0.345
'15:02.428',-0.265,-0.370
'15:02.431',-0.275,-0.365
'15:02.433',-0.280,-0.380
'15:02.436',-0.280,-0.375
'15:02.439',-0.275,-0.395
'15:02.442',-0.285,-0.380
'15:02.444',-0.295,-0.385
'15:02.447',-0.285,-0.370
'15:02.450',-0.270,-0.375
'15:02.453',-0.270,-0.375
'15:02.456',-0.250,-0.380
'15:02.458',-0.235,-0.380
'15:02.461',-0.230,-0.375
'15:02.464',-0.230,-0.385
'15:02.467',-0.225,-0.395
'15:02.469',-0.220,-0.415
'15:02.472',-0.225,-0.410
'15:02.475',-0.210,-0.415
'15:02.478',-0.210,-0.420
'15:02.481',-0.215,-0.415
'15:02.483',-0.195,-0.395
'15:02.486',-0.195,-0.405
'15:02.489',-0.185,-0.380
'15:02.492',-0.175,-0.390
'15:02.494',-0.175,-0.390
'15:02.497',-0.170,-0.390
'15:02.500',-0.185,-0.395
'15:02.503',-0.185,-0.385
'15:02.506',-0.210,-0.395
'15:02.508',-0.210,-0.390
'15:02.511',-0.220,-0.375
'15:02.514',-0.225,-0.370
'15:02.517',-0.225,-0.370
'15:02.519',-0.225,-0.365
'15:02.522',-0.225,-0.345
'15:02.525',-0.235,-0.345
'15:02.528',-0.235,-0.340
'15:02.531',-0.255,-0.340
'15:02.533',-0.275,-0.340
'15:02.536',-0.275,-0.350
'15:02.539',-0.280,-0.360
'15:02.542',-0.290,-0.355
'15:02.544',-0.300,-0.360
'15:02.547',-0.305,-0.350
'15:02.550',-0.290,-0.325
'15:02.553',-0.290,-0.335
'15:02.556',-0.290,-0.325
'15:02.558',-0.280,-0.310
'15:02.561',-0.285,-0.320
'15:02.564',-0.280,-0.315
'15:02.567',-0.295,-0.325
'15:02.569',-0.305,-0.345
'15:02.572',-0.310,-0.345
'15:02.575',-0.330,-0.335
'15:02.578',-0.320,-0.325
'15:02.581',-0.320,-0.325
'15:02.583',-0.305,-0.330
'15:02.586',-0.310,-0.315
'15:02.589',-0.295,-0.310
'15:02.592',-0.300,-0.325
'15:02.594',-0.300,-0.320
'15:02.597',-0.305,-0.330
'15:02.600',-0.315,-0.325
'15:02.603',-0.315,-0.330
'15:02.606',-0.330,-0.340
'15:02.608',-0.335,-0.335
'15:02.611',-0.340,-0.335
'15:02.614',-0.330,-0.330
'15:02.617',-0.325,-0.320
'15:02.619',-0.330,-0.310
'15:02.622',-0.320,-0.305
'15:02.625',-0.315,-0.315
'15:02.628',-0.315,-0.320
'15:02.631',-0.310,-0.305
'15:02.633',-0.320,-0.325
'15:02.636',-0.335,-0.325
'15:02.639',-0.330,-0.320
'15:02.642',-0.350,-0.340
'15:02.644',-0.345,-0.340
'15:02.647',-0.340,-0.325
'15:02.650',-0.340,-0.330
'15:02.653',-0.335,-0.310
'15:02.656',-0.330,-0.310
'15:02.658',-0.335,-0.320
'15:02.661',-0.330,-0.320
'15:02.664',-0.340,-0.315
'15:02.667',-0.345,-0.320
'15:02.669',-0.345,-0.320
'15:02.672',-0.360,-0.330
'15:02.675',-0.365,-0.340
'15:02.678',-0.365,-0.335
'15:02.681',-0.355,-0.320
'15:02.683',-0.350,-0.320
'15:02.686',-0.350,-0.315
'15:02.689',-0.345,-0.320
'15:02.692',-0.350,-0.320
'15:02.694',-0.345,-0.320
'15:02.697',-0.360,-0.325
'15:02.700',-0.360,-0.330
'15:02.703',-0.365,-0.330
'15:02.706',-0.355,-0.345
'15:02.708',-0.365,-0.335
'15:02.711',-0.350,-0.325
'15:02.714',-0.345,-0.320
'15:02.717',-0.320,-0.320
'15:02.719',-0.315,-0.305
'15:02.722',-0.295,-0.300
'15:02.725',-0.290,-0.300
'15:02.728',-0.290,-0.290
'15:02.731',-0.290,-0.300
'15:02.733',-0.285,-0.295
'15:02.736',-0.285,-0.305
'15:02.739',-0.285,-0.325
'15:02.742',-0.280,-0.325
'15:02.744',-0.265,-0.340
'15:02.747',-0.260,-0.345
'15:02.750',-0.250,-0.340
'15:02.753',-0.245,-0.340
'15:02.756',-0.255,-0.340
'15:02.758',-0.270,-0.345
'15:02.761',-0.285,-0.350
'15:02.764',-0.295,-0.340
'15:02.767',-0.300,-0.355
'15:02.769',-0.310,-0.355
'15:02.772',-0.315,-0.350
'15:02.775',-0.325,-0.350
'15:02.778',-0.325,-0.355
'15:02.781',-0.325,-0.345
'15:02.783',-0.325,-0.345
'15:02.786',-0.310,-0.335
'15:02.789',-0.310,-0.315
'15:02.792',-0.300,-0.315
'15:02.794',-0.320,-0.315
'15:02.797',-0.335,-0.320
'15:02.800',-0.345,-0.325
'15:02.803',-0.365,-0.325
'15:02.806',-0.380,-0.315
'15:02.808',-0.390,-0.320
'15:02.811',-0.395,-0.305
'15:02.814',-0.385,-0.315
'15:02.817',-0.395,-0.295
'15:02.819',-0.385,-0.305
'15:02.822',-0.370,-0.300
'15:02.825',-0.365,-0.300
'15:02.828',-0.370,-0.305
'15:02.831',-0.370,-0.315
'15:02.833',-0.365,-0.320
'15:02.836',-0.375,-0.320
'15:02.839',-0.385,-0.335
'15:02.842',-0.385,-0.335
'15:02.844',-0.390,-0.325
'15:02.847',-0.395,-0.320
'15:02.850',-0.410,-0.310
'15:02.853',-0.430,-0.295
'15:02.856',-0.435,-0.290
'15:02.858',-0.415,-0.310
'15:02.861',-0.350,-0.330
'15:02.864',-0.245,-0.375
'15:02.867',-0.085,-0.435
'15:02.869',0.115,-0.515
'15:02.872',0.365,-0.570
'15:02.875',0.620,-0.605
'15:02.878',0.860,-0.590
'15:02.881',0.995,-0.535
'15:02.883',0.975,-0.450
'15:02.886',0.770,-0.370
'15:02.889',0.465,-0.285
'15:02.892',0.125,-0.215
'15:02.894',-0.165,-0.170
'15:02.897',-0.355,-0.170
'15:02.900',-0.425,-0.190
'15:02.903',-0.415,-0.245
'15:02.906',-0.355,-0.300
'15:02.908',-0.295,-0.350
'15:02.911',-0.265,-0.375
'15:02.914',-0.265,-0.380
'15:02.917',-0.260,-0.355
'15:02.919',-0.270,-0.345
'15:02.922',-0.280,-0.320
'15:02.925',-0.300,-0.315
'15:02.928',-0.320,-0.335
'15:02.931',-0.335,-0.325
'15:02.933',-0.340,-0.330
'15:02.936',-0.345,-0.335
'15:02.939',-0.355,-0.350
'15:02.942',-0.360,-0.345
'15:02.944',-0.370,-0.340
'15:02.947',-0.365,-0.330
'15:02.950',-0.360,-0.320
'15:02.953',-0.355,-0.325
'15:02.956',-0.335,-0.320
'15:02.958',-0.330,-0.305
'15:02.961',-0.335,-0.320
'15:02.964',-0.345,-0.320
'15:02.967',-0.350,-0.330
'15:02.969',-0.350,-0.340
'15:02.972',-0.360,-0.345
'15:02.975',-0.365,-0.355
'15:02.978',-0.355,-0.340
'15:02.981',-0.355,-0.330
'15:02.983',-0.345,-0.325
'15:02.986',-0.340,-0.325
'15:02.989',-0.335,-0.315
'15:02.992',-0.320,-0.325
'15:02.994',-0.325,-0.320
'15:02.997',-0.320,-0.320
'15:03.000',-0.315,-0.345
'15:03.003',-0.305,-0.335
'15:03.006',-0.330,-0.345
'15:03.008',-0.320,-0.360
'15:03.011',-0.335,-0.355
'15:03.014',-0.330,-0.350
'15:03.017',-0.330,-0.340
'15:03.019',-0.335,-0.345
'15:03.022',-0.325,-0.345
'15:03.025',-0.310,-0.340
'15:03.028',-0.310,-0.350
'15:03.031',-0.305,-0.355
'15:03.033',-0.310,-0.365
'15:03.036',-0.320,-0.380
'15:03.039',-0.330,-0.385
'15:03.042',-0.325,-0.370
'15:03.044',-0.330,-0.375
'15:03.047',-0.320,-0.375
'15:03.050',-0.320,-0.375
'15:03.053',-0.315,-0.365
'15:03.056',-0.310,-0.365
'15:03.058',-0.300,-0.355
'15:03.061',-0.290,-0.375
'15:03.064',-0.290,-0.370
'15:03.067',-0.290,-0.375
'15:03.069',-0.290,-0.390
'15:03.072',-0.305,-0.385
'15:03.075',-0.305,-0.400
'15:03.078',-0.315,-0.395
'15:03.081',-0.315,-0.400
'15:03.083',-0.315,-0.390
'15:03.086',-0.310,-0.390
'15:03.089',-0.295,-0.380
'15:03.092',-0.295,-0.380
'15:03.094',-0.290,-0.380
'15:03.097',-0.280,-0.385
'15:03.100',-0.285,-0.400
'15:03.103',-0.295,-0.410
'15:03.106',-0.310,-0.420
'15:03.108',-0.310,-0.420
'15:03.111',-0.320,-0.415
'15:03.114',-0.320,-0.420
'15:03.117',-0.315,-0.410
'15:03.119',-0.300,-0.415
'15:03.122',-0.280,-0.405
'15:03.125',-0.270,-0.420
'15:03.128',-0.260,-0.420
'15:03.131',-0.255,-0.410
'15:03.133',-0.265,-0.425
'15:03.136',-0.270,-0.435
'15:03.139',-0.275,-0.445
'15:03.142',-0.270,-0.450
'15:03.144',-0.260,-0.435
'15:03.147',-0.235,-0.440
'15:03.150',-0.210,-0.435
'15:03.153',-0.205,-0.435
'15:03.156',-0.190,-0.425
'15:03.158',-0.190,-0.435
'15:03.161',-0.195,-0.445
'15:03.164',-0.205,-0.435
'15:03.167',-0.210,-0.435
'15:03.169',-0.210,-0.430
'15:03.172',-0.225,-0.450
'15:03.175',-0.230,-0.430
'15:03.178',-0.225,-0.425
'15:03.181',-0.235,-0.420
'15:03.183',-0.220,-0.415
'15:03.186',-0.230,-0.395
'15:03.189',-0.220,-0.390
'15:03.192',-0.235,-0.375
'15:03.194',-0.235,-0.390
'15:03.197',-0.255,-0.390
'15:03.200',-0.270,-0.395
'15:03.203',-0.280,-0.400
'15:03.206',-0.305,-0.395
'15:03.208',-0.305,-0.390
'15:03.211',-0.315,-0.385
'15:03.214',-0.330,-0.370
'15:03.217',-0.330,-0.365
'15:03.219',-0.335,-0.355
'15:03.222',-0.325,-0.350
'15:03.225',-0.330,-0.355
'15:03.228',-0.340,-0.355
'15:03.231',-0.340,-0.345
'15:03.233',-0.335,-0.355
'15:03.236',-0.330,-0.360
'15:03.239',-0.340,-0.360
'15:03.242',-0.345,-0.365
'15:03.244',-0.345,-0.355
'15:03.247',-0.355,-0.360
'15:03.250',-0.350,-0.360
'15:03.253',-0.350,-0.345
'15:03.256',-0.350,-0.350
'15:03.258',-0.345,-0.340
'15:03.261',-0.335,-0.345
'15:03.264',-0.355,-0.330
'15:03.267',-0.350,-0.340
'15:03.269',-0.355,-0.350
'15:03.272',-0.360,-0.355
'15:03.275',-0.370,-0.360
'15:03.278',-0.375,-0.350
'15:03.281',-0.380,-0.345
'15:03.283',-0.385,-0.335
'15:03.286',-0.385,-0.335
'15:03.289',-0.375,-0.330
'15:03.292',-0.370,-0.330
'15:03.294',-0.375,-0.325
'15:03.297',-0.365,-0.325
'15:03.300',-0.370,-0.345
'15:03.303',-0.380,-0.345
'15:03.306',-0.385,-0.360
'15:03.308',-0.395,-0.365
'15:03.311',-0.385,-0.360
'15:03.314',-0.395,-0.335
'15:03.317',-0.395,-0.345
'15:03.319',-0.375,-0.335
'15:03.322',-0.380,-0.320
'15:03.325',-0.375,-0.315
'15:03.328',-0.385,-0.330
'15:03.331',-0.385,-0.325
'15:03.333',-0.380,-0.345
'15:03.336',-0.390,-0.350
'15:03.339',-0.385,-0.345
'15:03.342',-0.390,-0.350
'15:03.344',-0.390,-0.345
'15:03.347',-0.395,-0.340
'15:03.350',-0.395,-0.325
'15:03.353',-0.385,-0.325
'15:03.356',-0.385,-0.320
'15:03.358',-0.380,-0.325
'15:03.361',-0.380,-0.330
'15:03.364',-0.390,-0.325
'15:03.367',-0.390,-0.345
'15:03.369',-0.390,-0.340
'15:03.372',-0.390,-0.340
'15:03.375',-0.385,-0.350
'15:03.378',-0.390,-0.335
'15:03.381',-0.385,-0.340
'15:03.383',-0.365,-0.330
'15:03.386',-0.365,-0.320
'15:03.389',-0.340,-0.305
'15:03.392',-0.345,-0.300
'15:03.394',-0.340,-0.305
'15:03.397',-0.335,-0.310
'15:03.400',-0.330,-0.305
'15:03.403',-0.340,-0.315
'15:03.406',-0.335,-0.325
'15:03.408',-0.325,-0.330
'15:03.411',-0.320,-0.345
'15:03.414',-0.305,-0.350
'15:03.417',-0.300,-0.345
'15:03.419',-0.295,-0.335
'15:03.422',-0.295,-0.345
'15:03.425',-0.315,-0.355
'15:03.428',-0.325,-0.350
'15:03.431',-0.335,-0.360
'15:03.433',-0.335,-0.360
'15:03.436',-0.345,-0.360
'15:03.439',-0.345,-0.365
'15:03.442',-0.360,-0.355
'15:03.444',-0.375,-0.350
'15:03.447',-0.380,-0.360
'15:03.450',-0.370,-0.350
'15:03.453',-0.375,-0.335
'15:03.456',-0.375,-0.325
'15:03.458',-0.390,-0.325
'15:03.461',-0.400,-0.330
'15:03.464',-0.410,-0.315
'15:03.467',-0.415,-0.320
'15:03.469',-0.435,-0.335
'15:03.472',-0.435,-0.330
'15:03.475',-0.435,-0.330
'15:03.478',-0.440,-0.335
'15:03.481',-0.445,-0.325
'15:03.483',-0.440,-0.325
'15:03.486',-0.430,-0.320
'15:03.489',-0.425,-0.310
'15:03.492',-0.415,-0.310
'15:03.494',-0.405,-0.325
'15:03.497',-0.410,-0.340
'15:03.500',-0.405,-0.350
'15:03.503',-0.405,-0.345
'15:03.506',-0.410,-0.350
'15:03.508',-0.415,-0.355
'15:03.511',-0.420,-0.360
'15:03.514',-0.425,-0.360
'15:03.517',-0.415,-0.355
'15:03.519',-0.395,-0.345
'15:03.522',-0.335,-0.335
'15:03.525',-0.210,-0.345
'15:03.528',-0.035,-0.360
'15:03.531',0.160,-0.395
'15:03.533',0.360,-0.450
'15:03.536',0.540,-0.525
'15:03.539',0.690,-0.595
'15:03.542',0.800,-0.655
'15:03.544',0.885,-0.700
'15:03.547',0.890,-0.725
'15:03.550',0.810,-0.700
'15:03.553',0.635,-0.670
'15:03.556',0.415,-0.605
'15:03.558',0.195,-0.545
'15:03.561',0.055,-0.505
'15:03.564',-0.040,-0.465
'15:03.567',-0.090,-0.425
'15:03.569',-0.120,-0.405
'15:03.572',-0.165,-0.395
'15:03.575',-0.225,-0.385
'15:03.578',-0.280,-0.375
'15:03.581',-0.330,-0.380
'15:03.583',-0.365,-0.360
'15:03.586',-0.385,-0.340
'15:03.589',-0.395,-0.335
'15:03.592',-0.380,-0.320
'15:03.594',-0.390,-0.325
'15:03.597',-0.395,-0.320
'15:03.600',-0.400,-0.330
'15:03.603',-0.420,-0.330
'15:03.606',-0.425,-0.330
'15:03.608',-0.430,-0.340
'15:03.611',-0.435,-0.330
'15:03.614',-0.440,-0.325
'15:03.617',-0.435,-0.320
'15:03.619',-0.430,-0.310
'15:03.622',-0.430,-0.305
'15:03.625',-0.415,-0.310
'15:03.628',-0.420,-0.305
'15:03.631',-0.420,-0.310
'15:03.633',-0.420,-0.305
'15:03.636',-0.420,-0.320
'15:03.639',-0.415,-0.315
'15:03.642',-0.425,-0.315
'15:03.644',-0.425,-0.325
'15:03.647',-0.430,-0.310
'15:03.650',-0.425,-0.300
'15:03.653',-0.425,-0.300
'15:03.656',-0.415,-0.305
'15:03.658',-0.410,-0.290
'15:03.661',-0.405,-0.300
'15:03.664',-0.405,-0.300
'15:03.667',-0.410,-0.310
'15:03.669',-0.410,-0.320
'15:03.672',-0.415,-0.325
'15:03.675',-0.415,-0.325
'15:03.678',-0.420,-0.325
'15:03.681',-0.425,-0.310
'15:03.683',-0.425,-0.310
'15:03.686',-0.420,-0.300
'15:03.689',-0.405,-0.295
'15:03.692',-0.405,-0.290
'15:03.694',-0.410,-0.310
'15:03.697',-0.405,-0.315
'15:03.700',-0.405,-0.320
'15:03.703',-0.420,-0.325
'15:03.706',-0.425,-0.325
'15:03.708',-0.430,-0.330
'15:03.711',-0.420,-0.320
'15:03.714',-0.430,-0.325
'15:03.717',-0.420,-0.320
'15:03.719',-0.415,-0.315
'15:03.722',-0.410,-0.315
'15:03.725',-0.410,-0.310
'15:03.728',-0.410,-0.320
'15:03.731',-0.415,-0.320
'15:03.733',-0.425,-0.330
'15:03.736',-0.425,-0.340
'15:03.739',-0.430,-0.340
'15:03.742',-0.425,-0.345
'15:03.744',-0.440,-0.335
'15:03.747',-0.440,-0.335
'15:03.750',-0.435,-0.320
'15:03.753',-0.430,-0.305
'15:03.756',-0.430,-0.325
'15:03.758',-0.420,-0.315
'15:03.761',-0.425,-0.305
'15:03.764',-0.425,-0.320
'15:03.767',-0.445,-0.325
'15:03.769',-0.450,-0.340
'15:03.772',-0.465,-0.350
'15:03.775',-0.465,-0.350
'15:03.778',-0.465,-0.345
'15:03.781',-0.465,-0.345
'15:03.783',-0.460,-0.340
'15:03.786',-0.450,-0.340
'15:03.789',-0.445,-0.335
'15:03.792',-0.435,-0.335
'15:03.794',-0.435,-0.330
'15:03.797',-0.425,-0.350
'15:03.800',-0.415,-0.350
'15:03.803',-0.425,-0.355
'15:03.806',-0.420,-0.355
'15:03.808',-0.420,-0.370
'15:03.811',-0.425,-0.370
'15:03.814',-0.410,-0.360
'15:03.817',-0.395,-0.355
'15:03.819',-0.380,-0.350
'15:03.822',-0.370,-0.350
'15:03.825',-0.360,-0.345
'15:03.828',-0.365,-0.355
'15:03.831',-0.360,-0.350
'15:03.833',-0.360,-0.355
'15:03.836',-0.360,-0.360
'15:03.839',-0.370,-0.375
'15:03.842',-0.370,-0.375
'15:03.844',-0.370,-0.370
'15:03.847',-0.365,-0.355
'15:03.850',-0.365,-0.360
'15:03.853',-0.365,-0.350
'15:03.856',-0.355,-0.335
'15:03.858',-0.365,-0.335
'15:03.861',-0.360,-0.330
'15:03.864',-0.365,-0.335
'15:03.867',-0.370,-0.335
'15:03.869',-0.380,-0.345
'15:03.872',-0.395,-0.340
'15:03.875',-0.390,-0.355
'15:03.878',-0.400,-0.350
'15:03.881',-0.385,-0.340
'15:03.883',-0.395,-0.330
'15:03.886',-0.375,-0.325
'15:03.889',-0.385,-0.325
'15:03.892',-0.385,-0.315
'15:03.894',-0.390,-0.320
'15:03.897',-0.380,-0.320
'15:03.900',-0.385,-0.335
'15:03.903',-0.395,-0.335
'15:03.906',-0.405,-0.345
'15:03.908',-0.410,-0.350
'15:03.911',-0.405,-0.345
'15:03.914',-0.410,-0.335
'15:03.917',-0.405,-0.325
'15:03.919',-0.410,-0.320
'15:03.922',-0.410,-0.315
'15:03.925',-0.395,-0.315
'15:03.928',-0.400,-0.315
'15:03.931',-0.385,-0.320
'15:03.933',-0.385,-0.340
'15:03.936',-0.390,-0.335
'15:03.939',-0.410,-0.350
'15:03.942',-0.410,-0.335
'15:03.944',-0.425,-0.335
'15:03.947',-0.425,-0.335
'15:03.950',-0.405,-0.335
'15:03.953',-0.395,-0.325
'15:03.956',-0.400,-0.320
'15:03.958',-0.405,-0.310
'15:03.961',-0.400,-0.330
'15:03.964',-0.405,-0.320
'15:03.967',-0.420,-0.335
'15:03.969',-0.410,-0.335
'15:03.972',-0.420,-0.330
'15:03.975',-0.435,-0.345
'15:03.978',-0.430,-0.320
'15:03.981',-0.430,-0.330
'15:03.983',-0.425,-0.320
'15:03.986',-0.410,-0.325
'15:03.989',-0.400,-0.320
'15:03.992',-0.405,-0.305
'15:03.994',-0.410,-0.315
'15:03.997',-0.410,-0.315
'15:04.000',-0.410,-0.320
'15:04.003',-0.415,-0.340
'15:04.006',-0.425,-0.335
'15:04.008',-0.415,-0.345
'15:04.011',-0.430,-0.340
'15:04.014',-0.425,-0.330
'15:04.017',-0.430,-0.315
'15:04.019',-0.420,-0.315
'15:04.022',-0.410,-0.300
'15:04.025',-0.415,-0.305
'15:04.028',-0.410,-0.305
'15:04.031',-0.420,-0.310
'15:04.033',-0.415,-0.320
'15:04.036',-0.420,-0.315
'15:04.039',-0.430,-0.330
'15:04.042',-0.425,-0.335
'15:04.044',-0.425,-0.330
'15:04.047',-0.405,-0.335
'15:04.050',-0.400,-0.315
'15:04.053',-0.390,-0.330
'15:04.056',-0.385,-0.320
'15:04.058',-0.370,-0.320
'15:04.061',-0.370,-0.310
'15:04.064',-0.370,-0.300
'15:04.067',-0.370,-0.305
'15:04.069',-0.365,-0.305
'15:04.072',-0.360,-0.320
'15:04.075',-0.370,-0.320
'15:04.078',-0.360,-0.310
'15:04.081',-0.355,-0.315
'15:04.083',-0.340,-0.305
'15:04.086',-0.330,-0.310
'15:04.089',-0.305,-0.305
'15:04.092',-0.285,-0.320
'15:04.094',-0.290,-0.340
'15:04.097',-0.305,-0.350
'15:04.100',-0.320,-0.360
'15:04.103',-0.335,-0.365
'15:04.106',-0.355,-0.375
'15:04.108',-0.370,-0.370
'15:04.111',-0.370,-0.365
'15:04.114',-0.375,-0.355
'15:04.117',-0.360,-0.345
'15:04.119',-0.370,-0.340
'15:04.122',-0.355,-0.335
'15:04.125',-0.350,-0.320
'15:04.128',-0.350,-0.335
'15:04.131',-0.360,-0.335
'15:04.133',-0.370,-0.335
'15:04.136',-0.385,-0.340
'15:04.139',-0.405,-0.355
'15:04.142',-0.425,-0.345
'15:04.144',-0.435,-0.340
'15:04.147',-0.440,-0.335
'15:04.150',-0.435,-0.320
'15:04.153',-0.435,-0.315
'15:04.156',-0.435,-0.320
'15:04.158',-0.420,-0.310
'15:04.161',-0.415,-0.325
'15:04.164',-0.410,-0.320
'15:04.167',-0.420,-0.320
'15:04.169',-0.425,-0.330
'15:04.172',-0.420,-0.340
'15:04.175',-0.440,-0.340
'15:04.178',-0.430,-0.335
'15:04.181',-0.435,-0.330
'15:04.183',-0.415,-0.330
'15:04.186',-0.405,-0.320
'15:04.189',-0.415,-0.315
'15:04.192',-0.405,-0.320
'15:04.194',-0.420,-0.320
'15:04.197',-0.430,-0.315
'15:04.200',-0.470,-0.315
'15:04.203',-0.500,-0.325
'15:04.206',-0.505,-0.335
'15:04.208',-0.490,-0.350
'15:04.211',-0.410,-0.370
'15:04.214',-0.295,-0.405
'15:04.217',-0.130,-0.440
'15:04.219',0.080,-0.480
'15:04.222',0.305,-0.520
'15:04.225',0.560,-0.525
'15:04.228',0.775,-0.515
'15:04.231',0.905,-0.490
'15:04.233',0.885,-0.445
'15:04.236',0.695,-0.385
'15:04.239',0.400,-0.340
'15:04.242',0.055,-0.295
'15:04.244',-0.255,-0.245
'15:04.247',-0.455,-0.240
'15:04.250',-0.520,-0.245
'15:04.253',-0.490,-0.275
'15:04.256',-0.405,-0.305
'15:04.258',-0.320,-0.340
'15:04.261',-0.300,-0.370
'15:04.264',-0.280,-0.385
'15:04.267',-0.290,-0.375
'15:04.269',-0.325,-0.370
'15:04.272',-0.350,-0.365
'15:04.275',-0.375,-0.365
'15:04.278',-0.400,-0.365
'15:04.281',-0.420,-0.360
'15:04.283',-0.410,-0.350
'15:04.286',-0.400,-0.355
'15:04.289',-0.385,-0.340
'15:04.292',-0.375,-0.330
'15:04.294',-0.375,-0.340
'15:04.297',-0.390,-0.335
'15:04.300',-0.395,-0.350
'15:04.303',-0.415,-0.340
'15:04.306',-0.415,-0.355
'15:04.308',-0.410,-0.355
'15:04.311',-0.410,-0.355
'15:04.314',-0.410,-0.355
'15:04.317',-0.405,-0.335
'15:04.319',-0.400,-0.330
'15:04.322',-0.400,-0.320
'15:04.325',-0.385,-0.320
'15:04.328',-0.390,-0.335
'15:04.331',-0.390,-0.330
'15:04.333',-0.390,-0.350
'15:04.336',-0.395,-0.350
'15:04.339',-0.400,-0.365
'15:04.342',-0.390,-0.370
'15:04.344',-0.395,-0.360
'15:04.347',-0.390,-0.365
'15:04.350',-0.385,-0.350
'15:04.353',-0.385,-0.345
'15:04.356',-0.380,-0.340
'15:04.358',-0.370,-0.345
'15:04.361',-0.365,-0.345
'15:04.364',-0.350,-0.345
'15:04.367',-0.375,-0.350
'15:04.369',-0.375,-0.365
'15:04.372',-0.370,-0.365
'15:04.375',-0.380,-0.380
'15:04.378',-0.380,-0.380
'15:04.381',-0.380,-0.385
'15:04.383',-0.375,-0.365
'15:04.386',-0.360,-0.370
'15:04.389',-0.355,-0.355
'15:04.392',-0.350,-0.345
'15:04.394',-0.345,-0.360
'15:04.397',-0.340,-0.360
'15:04.400',-0.345,-0.385
'15:04.403',-0.345,-0.390
'15:04.406',-0.360,-0.405
'15:04.408',-0.355,-0.405
'15:04.411',-0.360,-0.400
'15:04.414',-0.370,-0.390
'15:04.417',-0.360,-0.375
'15:04.419',-0.355,-0.385
'15:04.422',-0.345,-0.385
'15:04.425',-0.340,-0.385
'15:04.428',-0.335,-0.390
'15:04.431',-0.330,-0.400
'15:04.433',-0.335,-0.405
'15:04.436',-0.340,-0.415
'15:04.439',-0.355,-0.425
'15:04.442',-0.355,-0.435
'15:04.444',-0.355,-0.430
'15:04.447',-0.355,-0.420
'15:04.450',-0.350,-0.425
'15:04.453',-0.350,-0.405
'15:04.456',-0.325,-0.395
'15:04.458',-0.320,-0.405
'15:04.461',-0.330,-0.420
'15:04.464',-0.330,-0.410
'15:04.467',-0.335,-0.430
'15:04.469',-0.335,-0.430
'15:04.472',-0.335,-0.430
'15:04.475',-0.340,-0.430
'15:04.478',-0.335,-0.430
'15:04.481',-0.325,-0.440
'15:04.483',-0.310,-0.440
'15:04.486',-0.300,-0.450
'15:04.489',-0.295,-0.425
'15:04.492',-0.285,-0.415
'15:04.494',-0.285,-0.435
'15:04.497',-0.275,-0.435
'15:04.500',-0.275,-0.440
'15:04.503',-0.270,-0.455
'15:04.506',-0.270,-0.455
'15:04.508',-0.265,-0.450
'15:04.511',-0.260,-0.445
'15:04.514',-0.260,-0.445
'15:04.517',-0.260,-0.445
'15:04.519',-0.260,-0.415
'15:04.522',-0.260,-0.420
'15:04.525',-0.255,-0.415
'15:04.528',-0.265,-0.415
'15:04.531',-0.255,-0.405
'15:04.533',-0.280,-0.415
'15:04.536',-0.290,-0.410
'15:04.539',-0.310,-0.415
'15:04.542',-0.315,-0.415
'15:04.544',-0.330,-0.410
'15:04.547',-0.340,-0.405
'15:04.550',-0.340,-0.390
'15:04.553',-0.345,-0.365
'15:04.556',-0.335,-0.355
'15:04.558',-0.345,-0.365
'15:04.561',-0.350,-0.365
'15:04.564',-0.350,-0.350
'15:04.567',-0.355,-0.365
'15:04.569',-0.355,-0.370
'15:04.572',-0.370,-0.370
'15:04.575',-0.380,-0.385
'15:04.578',-0.385,-0.375
'15:04.581',-0.390,-0.360
'15:04.583',-0.385,-0.360
'15:04.586',-0.380,-0.350
'15:04.589',-0.370,-0.340
'15:04.592',-0.360,-0.330
'15:04.594',-0.370,-0.330
'15:04.597',-0.370,-0.325
'15:04.600',-0.370,-0.340
'15:04.603',-0.380,-0.345
'15:04.606',-0.390,-0.350
'15:04.608',-0.400,-0.360
'15:04.611',-0.400,-0.355
'15:04.614',-0.405,-0.350
'15:04.617',-0.400,-0.345
'15:04.619',-0.385,-0.340
'15:04.622',-0.395,-0.335
'15:04.625',-0.380,-0.325
'15:04.628',-0.385,-0.335
'15:04.631',-0.375,-0.330
'15:04.633',-0.390,-0.345
'15:04.636',-0.390,-0.350
'15:04.639',-0.395,-0.350
'15:04.642',-0.400,-0.355
'15:04.644',-0.405,-0.355
'15:04.647',-0.410,-0.345
'15:04.650',-0.405,-0.335
'15:04.653',-0.400,-0.340
'15:04.656',-0.395,-0.325
'15:04.658',-0.385,-0.325
'15:04.661',-0.370,-0.335
'15:04.664',-0.380,-0.320
'15:04.667',-0.385,-0.350
'15:04.669',-0.395,-0.345
'15:04.672',-0.405,-0.360
'15:04.675',-0.400,-0.360
'15:04.678',-0.415,-0.345
'15:04.681',-0.425,-0.335
'15:04.683',-0.415,-0.340
'15:04.686',-0.410,-0.335
'15:04.689',-0.395,-0.325
'15:04.692',-0.390,-0.330
'15:04.694',-0.390,-0.325
'15:04.697',-0.380,-0.335
'15:04.700',-0.370,-0.345
'15:04.703',-0.370,-0.350
'15:04.706',-0.375,-0.360
'15:04.708',-0.375,-0.360
'15:04.711',-0.375,-0.345
'15:04.714',-0.365,-0.345
'15:04.717',-0.350,-0.335
'15:04.719',-0.320,-0.325
'15:04.722',-0.320,-0.315
'15:04.725',-0.315,-0.310
'15:04.728',-0.350,-0.325
'15:04.731',-0.360,-0.320
'15:04.733',-0.380,-0.315
'15:04.736',-0.410,-0.325
'15:04.739',-0.425,-0.315
'15:04.742',-0.415,-0.320
'15:04.744',-0.420,-0.315
'15:04.747',-0.415,-0.310
'15:04.750',-0.400,-0.305
'15:04.753',-0.375,-0.305
'15:04.756',-0.355,-0.305
'15:04.758',-0.330,-0.305
'15:04.761',-0.320,-0.300
'15:04.764',-0.310,-0.315
'15:04.767',-0.325,-0.335
'15:04.769',-0.330,-0.355
'15:04.772',-0.350,-0.370
'15:04.775',-0.355,-0.375
'15:04.778',-0.370,-0.370
'15:04.781',-0.380,-0.380
'15:04.783',-0.370,-0.375
'15:04.786',-0.360,-0.365
'15:04.789',-0.360,-0.355
'15:04.792',-0.350,-0.340
'15:04.794',-0.365,-0.355
'15:04.797',-0.355,-0.345
'15:04.800',-0.365,-0.350
'15:04.803',-0.360,-0.350
'15:04.806',-0.395,-0.355
'15:04.808',-0.405,-0.360
'15:04.811',-0.420,-0.350
'15:04.814',-0.415,-0.345
'15:04.817',-0.420,-0.345
'15:04.819',-0.435,-0.335
'15:04.822',-0.425,-0.330
'15:04.825',-0.425,-0.310
'15:04.828',-0.425,-0.315
'15:04.831',-0.415,-0.315
'15:04.833',-0.415,-0.320
'15:04.836',-0.420,-0.340
'15:04.839',-0.415,-0.330
'15:04.842',-0.430,-0.335
'15:04.844',-0.430,-0.330
'15:04.847',-0.430,-0.330
'15:04.850',-0.420,-0.315
'15:04.853',-0.430,-0.320
'15:04.856',-0.410,-0.315
'15:04.858',-0.395,-0.310
'15:04.861',-0.390,-0.315
'15:04.864',-0.395,-0.315
'15:04.867',-0.410,-0.315
'15:04.869',-0.435,-0.325
'15:04.872',-0.470,-0.315
'15:04.875',-0.500,-0.320
'15:04.878',-0.525,-0.325
'15:04.881',-0.495,-0.325
'15:04.883',-0.445,-0.340
'15:04.886',-0.355,-0.355
'15:04.889',-0.225,-0.385
'15:04.892',-0.065,-0.430
'15:04.894',0.135,-0.480
'15:04.897',0.355,-0.515
'15:04.900',0.585,-0.540
'15:04.903',0.785,-0.530
'15:04.906',0.920,-0.510
'15:04.908',0.925,-0.460
'15:04.911',0.760,-0.405
'15:04.914',0.490,-0.345
'15:04.917',0.180,-0.285
'15:04.919',-0.115,-0.235
'15:04.922',-0.340,-0.220
'15:04.925',-0.455,-0.205
'15:04.928',-0.470,-0.240
'15:04.931',-0.415,-0.275
'15:04.933',-0.345,-0.310
'15:04.936',-0.305,-0.355
'15:04.939',-0.285,-0.375
'15:04.942',-0.300,-0.380
'15:04.944',-0.300,-0.365
'15:04.947',-0.325,-0.365
'15:04.950',-0.340,-0.340
'15:04.953',-0.350,-0.330
'15:04.956',-0.355,-0.340
'15:04.958',-0.365,-0.325
'15:04.961',-0.370,-0.325
'15:04.964',-0.365,-0.320
'15:04.967',-0.375,-0.325
'15:04.969',-0.385,-0.330
'15:04.972',-0.385,-0.335
'15:04.975',-0.385,-0.345
'15:04.978',-0.380,-0.335
'15:04.981',-0.385,-0.335
'15:04.983',-0.380,-0.335
'15:04.986',-0.385,-0.325
'15:04.989',-0.380,-0.305
'15:04.992',-0.380,-0.315
'15:04.994',-0.380,-0.310
'15:04.997',-0.370,-0.320
'15:05.000',-0.385,-0.320
'15:05.003',-0.395,-0.335
'15:05.006',-0.395,-0.345
'15:05.008',-0.400,-0.350
'15:05.011',-0.410,-0.350
'15:05.014',-0.410,-0.340
'15:05.017',-0.400,-0.335
'15:05.019',-0.380,-0.330
'15:05.022',-0.375,-0.340
'15:05.025',-0.375,-0.335
'15:05.028',-0.375,-0.335
'15:05.031',-0.365,-0.340
'15:05.033',-0.380,-0.345
'15:05.036',-0.370,-0.355
'15:05.039',-0.380,-0.360
'15:05.042',-0.385,-0.370
'15:05.044',-0.385,-0.365
'15:05.047',-0.385,-0.365
'15:05.050',-0.385,-0.350
'15:05.053',-0.370,-0.340
'15:05.056',-0.355,-0.340
'15:05.058',-0.345,-0.335
'15:05.061',-0.340,-0.340
'15:05.064',-0.340,-0.330
'15:05.067',-0.340,-0.345
'15:05.069',-0.345,-0.360
'15:05.072',-0.335,-0.365
'15:05.075',-0.340,-0.375
'15:05.078',-0.330,-0.370
'15:05.081',-0.325,-0.370
'15:05.083',-0.315,-0.365
'15:05.086',-0.310,-0.365
'15:05.089',-0.280,-0.355
'15:05.092',-0.275,-0.355
'15:05.094',-0.275,-0.350
'15:05.097',-0.290,-0.350
'15:05.100',-0.320,-0.350
'15:05.103',-0.340,-0.340
'15:05.106',-0.350,-0.330
'15:05.108',-0.335,-0.325
'15:05.111',-0.325,-0.325
'15:05.114',-0.350,-0.340
'15:05.117',-0.380,-0.365
'15:05.119',-0.405,-0.390
'15:05.122',-0.420,-0.395
'15:05.125',-0.400,-0.395
'15:05.128',-0.385,-0.385
'15:05.131',-0.345,-0.370
'15:05.133',-0.320,-0.385
'15:05.136',-0.315,-0.410
'15:05.139',-0.310,-0.440
'15:05.142',-0.320,-0.470
'15:05.144',-0.335,-0.480
'15:05.147',-0.340,-0.475
'15:05.150',-0.335,-0.450
'15:05.153',-0.310,-0.430
'15:05.156',-0.300,-0.410
'15:05.158',-0.290,-0.410
'15:05.161',-0.290,-0.410
'15:05.164',-0.295,-0.415
'15:05.167',-0.300,-0.425
'15:05.169',-0.315,-0.430
'15:05.172',-0.320,-0.440
'15:05.175',-0.330,-0.445
'15:05.178',-0.320,-0.430
'15:05.181',-0.315,-0.440
'15:05.183',-0.305,-0.430
'15:05.186',-0.285,-0.415
'15:05.189',-0.265,-0.400
'15:05.192',-0.245,-0.400
'15:05.194',-0.230,-0.405
'15:05.197',-0.230,-0.410
'15:05.200',-0.235,-0.420
'15:05.203',-0.230,-0.420
'15:05.206',-0.230,-0.435
'15:05.208',-0.240,-0.430
'15:05.211',-0.245,-0.440
'15:05.214',-0.260,-0.430
'15:05.217',-0.255,-0.415
'15:05.219',-0.260,-0.410
'15:05.222',-0.260,-0.405
'15:05.225',-0.260,-0.395
'15:05.228',-0.260,-0.400
'15:05.231',-0.265,-0.395
'15:05.233',-0.290,-0.395
'15:05.236',-0.315,-0.405
'15:05.239',-0.340,-0.415
'15:05.242',-0.350,-0.415
'15:05.244',-0.350,-0.410
'15:05.247',-0.345,-0.425
'15:05.250',-0.335,-0.405
'15:05.253',-0.330,-0.385
'15:05.256',-0.310,-0.370
'15:05.258',-0.325,-0.360
'15:05.261',-0.315,-0.375
'15:05.264',-0.330,-0.370
'15:05.267',-0.340,-0.385
'15:05.269',-0.365,-0.375
'15:05.272',-0.370,-0.390
'15:05.275',-0.375,-0.385
'15:05.278',-0.370,-0.385
'15:05.281',-0.375,-0.375
'15:05.283',-0.365,-0.365
'15:05.286',-0.365,-0.365
'15:05.289',-0.375,-0.345
'15:05.292',-0.370,-0.340
'15:05.294',-0.360,-0.335
'15:05.297',-0.365,-0.325
'15:05.300',-0.370,-0.335
'15:05.303',-0.385,-0.350
'15:05.306',-0.380,-0.360
'15:05.308',-0.385,-0.370
'15:05.311',-0.385,-0.390
'15:05.314',-0.380,-0.385
'15:05.317',-0.375,-0.375
'15:05.319',-0.360,-0.345
'15:05.322',-0.350,-0.335
'15:05.325',-0.335,-0.340
'15:05.328',-0.335,-0.370
'15:05.331',-0.340,-0.390
'15:05.333',-0.345,-0.410
'15:05.336',-0.375,-0.400
'15:05.339',-0.395,-0.400
'15:05.342',-0.420,-0.395
'15:05.344',-0.445,-0.380
'15:05.347',-0.445,-0.370
'15:05.350',-0.435,-0.345
'15:05.353',-0.420,-0.340
'15:05.356',-0.405,-0.335
'15:05.358',-0.395,-0.340
'15:05.361',-0.390,-0.350
'15:05.364',-0.395,-0.355
'15:05.367',-0.400,-0.360
'15:05.369',-0.410,-0.365
'15:05.372',-0.410,-0.360
'15:05.375',-0.420,-0.365
'15:05.378',-0.410,-0.350
'15:05.381',-0.410,-0.340
'15:05.383',-0.400,-0.330
'15:05.386',-0.395,-0.335
'15:05.389',-0.375,-0.345
'15:05.392',-0.375,-0.345
'15:05.394',-0.365,-0.350
'15:05.397',-0.370,-0.350
'15:05.400',-0.360,-0.355
'15:05.403',-0.380,-0.365
'15:05.406',-0.380,-0.395
'15:05.408',-0.375,-0.410
'15:05.411',-0.375,-0.420
'15:05.414',-0.375,-0.400
'15:05.417',-0.380,-0.380
'15:05.419',-0.365,-0.375
'15:05.422',-0.355,-0.360
'15:05.425',-0.345,-0.340
'15:05.428',-0.335,-0.350
'15:05.431',-0.330,-0.355
'15:05.433',-0.340,-0.365
'15:05.436',-0.340,-0.365
'15:05.439',-0.330,-0.375
'15:05.442',-0.315,-0.385
'15:05.444',-0.305,-0.385
'15:05.447',-0.285,-0.380
'15:05.450',-0.285,-0.385
'15:05.453',-0.290,-0.390
'15:05.456',-0.325,-0.385
'15:05.458',-0.345,-0.385
'15:05.461',-0.355,-0.385
'15:05.464',-0.355,-0.390
'15:05.467',-0.350,-0.385
'15:05.469',-0.340,-0.375
'15:05.472',-0.345,-0.375
'15:05.475',-0.340,-0.385
'15:05.478',-0.355,-0.380
'15:05.481',-0.370,-0.405
'15:05.483',-0.385,-0.400
'15:05.486',-0.385,-0.405
'15:05.489',-0.385,-0.380
'15:05.492',-0.380,-0.370
'15:05.494',-0.390,-0.360
'15:05.497',-0.395,-0.360
'15:05.500',-0.410,-0.355
'15:05.503',-0.420,-0.360
'15:05.506',-0.425,-0.375
'15:05.508',-0.430,-0.380
'15:05.511',-0.435,-0.370
'15:05.514',-0.440,-0.375
'15:05.517',-0.435,-0.370
'15:05.519',-0.430,-0.365
'15:05.522',-0.420,-0.350
'15:05.525',-0.405,-0.350
'15:05.528',-0.405,-0.340
'15:05.531',-0.390,-0.360
'15:05.533',-0.400,-0.365
'15:05.536',-0.400,-0.365
'15:05.539',-0.405,-0.370
'15:05.542',-0.410,-0.370
'15:05.544',-0.420,-0.360
'15:05.547',-0.425,-0.350
'15:05.550',-0.435,-0.370
'15:05.553',-0.460,-0.370
'15:05.556',-0.485,-0.385
'15:05.558',-0.500,-0.380
'15:05.561',-0.470,-0.380
'15:05.564',-0.405,-0.400
'15:05.567',-0.305,-0.420
'15:05.569',-0.165,-0.445
'15:05.572',0.020,-0.500
'15:05.575',0.265,-0.550
'15:05.578',0.525,-0.585
'15:05.581',0.800,-0.600
'15:05.583',1.005,-0.585
'15:05.586',1.080,-0.545
'15:05.589',0.980,-0.475
'15:05.592',0.715,-0.405
'15:05.594',0.380,-0.340
'15:05.597',0.055,-0.280
'15:05.600',-0.225,-0.250
'15:05.603',-0.390,-0.250
'15:05.606',-0.445,-0.275
'15:05.608',-0.430,-0.300
'15:05.611',-0.385,-0.340
'15:05.614',-0.340,-0.380
'15:05.617',-0.305,-0.405
'15:05.619',-0.300,-0.410
'15:05.622',-0.300,-0.405
'15:05.625',-0.305,-0.385
'15:05.628',-0.320,-0.380
'15:05.631',-0.330,-0.375
'15:05.633',-0.345,-0.385
'15:05.636',-0.380,-0.395
'15:05.639',-0.385,-0.405
'15:05.642',-0.395,-0.415
'15:05.644',-0.405,-0.415
'15:05.647',-0.405,-0.400
'15:05.650',-0.395,-0.385
'15:05.653',-0.405,-0.375
'15:05.656',-0.395,-0.370
'15:05.658',-0.385,-0.360
'15:05.661',-0.375,-0.375
'15:05.664',-0.380,-0.395
'15:05.667',-0.380,-0.390
'15:05.669',-0.390,-0.400
'15:05.672',-0.395,-0.405
'15:05.675',-0.395,-0.405
'15:05.678',-0.400,-0.400
'15:05.681',-0.415,-0.395
'15:05.683',-0.400,-0.395
'15:05.686',-0.405,-0.395
'15:05.689',-0.390,-0.390
'15:05.692',-0.380,-0.380
'15:05.694',-0.370,-0.395
'15:05.697',-0.345,-0.370
'15:05.700',-0.355,-0.370
'15:05.703',-0.370,-0.375
'15:05.706',-0.390,-0.380
'15:05.708',-0.405,-0.405
'15:05.711',-0.410,-0.400
'15:05.714',-0.405,-0.420
'15:05.717',-0.400,-0.400
'15:05.719',-0.380,-0.390
'15:05.722',-0.365,-0.375
'15:05.725',-0.350,-0.375
'15:05.728',-0.350,-0.375
'15:05.731',-0.350,-0.375
'15:05.733',-0.355,-0.400
'15:05.736',-0.355,-0.415
'15:05.739',-0.365,-0.435
'15:05.742',-0.375,-0.450
'15:05.744',-0.375,-0.445
'15:05.747',-0.360,-0.440
'15:05.750',-0.345,-0.420
'15:05.753',-0.345,-0.405
'15:05.756',-0.335,-0.400
'15:05.758',-0.330,-0.400
'15:05.761',-0.335,-0.415
'15:05.764',-0.340,-0.415
'15:05.767',-0.345,-0.410
'15:05.769',-0.350,-0.415
'15:05.772',-0.355,-0.415
'15:05.775',-0.365,-0.420
'15:05.778',-0.355,-0.430
'15:05.781',-0.340,-0.435
'15:05.783',-0.335,-0.445
'15:05.786',-0.325,-0.455
'15:05.789',-0.320,-0.455
'15:05.792',-0.305,-0.455
'15:05.794',-0.295,-0.455
'15:05.797',-0.295,-0.440
'15:05.800',-0.310,-0.455
'15:05.803',-0.315,-0.450
'15:05.806',-0.320,-0.465
'15:05.808',-0.330,-0.475
'15:05.811',-0.315,-0.485
'15:05.814',-0.315,-0.480
'15:05.817',-0.300,-0.470
'15:05.819',-0.300,-0.475
'15:05.822',-0.295,-0.465
'15:05.825',-0.310,-0.455
'15:05.828',-0.320,-0.455
'15:05.831',-0.330,-0.460
'15:05.833',-0.340,-0.445
'15:05.836',-0.355,-0.465
'15:05.839',-0.365,-0.470
'15:05.842',-0.360,-0.465
'15:05.844',-0.345,-0.475
'15:05.847',-0.335,-0.465
'15:05.850',-0.305,-0.465
'15:05.853',-0.285,-0.450
'15:05.856',-0.270,-0.475
'15:05.858',-0.260,-0.460
'15:05.861',-0.250,-0.460
'15:05.864',-0.260,-0.455
'15:05.867',-0.260,-0.480
'15:05.869',-0.260,-0.485
'15:05.872',-0.265,-0.500
'15:05.875',-0.255,-0.495
'15:05.878',-0.250,-0.485
'15:05.881',-0.250,-0.475
'15:05.883',-0.235,-0.450
'15:05.886',-0.230,-0.435
'15:05.889',-0.230,-0.440
'15:05.892',-0.230,-0.455
'15:05.894',-0.245,-0.475
'15:05.897',-0.260,-0.490
'15:05.900',-0.255,-0.505
'15:05.903',-0.270,-0.505
'15:05.906',-0.290,-0.495
'15:05.908',-0.300,-0.490
'15:05.911',-0.315,-0.475
'15:05.914',-0.325,-0.455
'15:05.917',-0.330,-0.450
'15:05.919',-0.325,-0.450
'15:05.922',-0.340,-0.435
'15:05.925',-0.315,-0.420
'15:05.928',-0.315,-0.425
'15:05.931',-0.320,-0.420
'15:05.933',-0.335,-0.405
'15:05.936',-0.360,-0.420
'15:05.939',-0.365,-0.440
'15:05.942',-0.375,-0.425
'15:05.944',-0.375,-0.415
'15:05.947',-0.385,-0.415
'15:05.950',-0.380,-0.400
'15:05.953',-0.375,-0.390
'15:05.956',-0.370,-0.385
'15:05.958',-0.365,-0.380
'15:05.961',-0.375,-0.380
'15:05.964',-0.365,-0.380
'15:05.967',-0.360,-0.375
'15:05.969',-0.370,-0.385
'15:05.972',-0.365,-0.400
'15:05.975',-0.370,-0.405
'15:05.978',-0.375,-0.420
'15:05.981',-0.370,-0.415
'15:05.983',-0.370,-0.410
'15:05.986',-0.365,-0.405
'15:05.989',-0.375,-0.410
'15:05.992',-0.360,-0.395
'15:05.994',-0.360,-0.370
'15:05.997',-0.370,-0.375
'15:06.000',-0.365,-0.370
'15:06.003',-0.370,-0.370
'15:06.006',-0.380,-0.390
'15:06.008',-0.390,-0.390
'15:06.011',-0.395,-0.410
'15:06.014',-0.400,-0.430
'15:06.017',-0.400,-0.435
'15:06.019',-0.385,-0.430
'15:06.022',-0.375,-0.400
'15:06.025',-0.365,-0.390
'15:06.028',-0.380,-0.395
'15:06.031',-0.375,-0.385
'15:06.033',-0.375,-0.385
'15:06.036',-0.370,-0.395
'15:06.039',-0.390,-0.400
'15:06.042',-0.400,-0.400
'15:06.044',-0.400,-0.395
'15:06.047',-0.400,-0.410
'15:06.050',-0.400,-0.395
'15:06.053',-0.395,-0.380
'15:06.056',-0.390,-0.380
'15:06.058',-0.385,-0.375
'15:06.061',-0.380,-0.380
'15:06.064',-0.380,-0.385
'15:06.067',-0.380,-0.385
'15:06.069',-0.385,-0.385
'15:06.072',-0.395,-0.405
'15:06.075',-0.400,-0.420
'15:06.078',-0.405,-0.425
'15:06.081',-0.410,-0.420
'15:06.083',-0.405,-0.420
'15:06.086',-0.405,-0.400
'15:06.089',-0.400,-0.385
'15:06.092',-0.390,-0.375
'15:06.094',-0.375,-0.365
'15:06.097',-0.370,-0.370
'15:06.100',-0.365,-0.365
'15:06.103',-0.365,-0.390
'15:06.106',-0.365,-0.375
'15:06.108',-0.355,-0.385
'15:06.111',-0.355,-0.390
'15:06.114',-0.365,-0.375
'15:06.117',-0.355,-0.370
'15:06.119',-0.350,-0.365
'15:06.122',-0.335,-0.355
'15:06.125',-0.310,-0.360
'15:06.128',-0.305,-0.370
'15:06.131',-0.295,-0.370
'15:06.133',-0.300,-0.395
'15:06.136',-0.295,-0.395
'15:06.139',-0.310,-0.420
'15:06.142',-0.330,-0.435
'15:06.144',-0.355,-0.430
'15:06.147',-0.365,-0.420
'15:06.150',-0.360,-0.410
'15:06.153',-0.360,-0.390
'15:06.156',-0.365,-0.375
'15:06.158',-0.350,-0.355
'15:06.161',-0.350,-0.380
'15:06.164',-0.350,-0.390
'15:06.167',-0.365,-0.405
'15:06.169',-0.380,-0.405
'15:06.172',-0.390,-0.405
'15:06.175',-0.405,-0.410
'15:06.178',-0.415,-0.410
'15:06.181',-0.430,-0.400
'15:06.183',-0.425,-0.380
'15:06.186',-0.430,-0.380
'15:06.189',-0.420,-0.380
'15:06.192',-0.415,-0.385
'15:06.194',-0.410,-0.385
'15:06.197',-0.415,-0.390
'15:06.200',-0.410,-0.400
'15:06.203',-0.425,-0.415
'15:06.206',-0.430,-0.430
'15:06.208',-0.430,-0.430
'15:06.211',-0.430,-0.440
'15:06.214',-0.430,-0.435
'15:06.217',-0.425,-0.435
'15:06.219',-0.425,-0.425
'15:06.222',-0.415,-0.410
'15:06.225',-0.410,-0.395
'15:06.228',-0.405,-0.395
'15:06.231',-0.410,-0.400
'15:06.233',-0.440,-0.385
'15:06.236',-0.475,-0.395
'15:06.239',-0.515,-0.390
'15:06.242',-0.545,-0.390
'15:06.244',-0.535,-0.380
'15:06.247',-0.480,-0.380
'15:06.250',-0.380,-0.380
'15:06.253',-0.240,-0.410
'15:06.256',-0.055,-0.450
'15:06.258',0.155,-0.505
'15:06.261',0.410,-0.560
'15:06.264',0.665,-0.570
'15:06.267',0.880,-0.560
'15:06.269',0.990,-0.515
'15:06.272',0.955,-0.495
'15:06.275',0.740,-0.455
'15:06.278',0.425,-0.435
'15:06.281',0.080,-0.405
'15:06.283',-0.215,-0.360
'15:06.286',-0.400,-0.340
'15:06.289',-0.485,-0.320
'15:06.292',-0.470,-0.330
'15:06.294',-0.405,-0.360
'15:06.297',-0.340,-0.390
'15:06.300',-0.305,-0.435
'15:06.303',-0.290,-0.465
'15:06.306',-0.305,-0.490
'15:06.308',-0.340,-0.500
'15:06.311',-0.365,-0.480
'15:06.314',-0.390,-0.465
'15:06.317',-0.395,-0.440
'15:06.319',-0.395,-0.445
'15:06.322',-0.390,-0.425
'15:06.325',-0.390,-0.415
'15:06.328',-0.390,-0.405
'15:06.331',-0.380,-0.410
'15:06.333',-0.380,-0.405
'15:06.336',-0.385,-0.410
'15:06.339',-0.395,-0.425
'15:06.342',-0.410,-0.410
'15:06.344',-0.410,-0.410
'15:06.347',-0.415,-0.390
'15:06.350',-0.415,-0.400
'15:06.353',-0.410,-0.410
'15:06.356',-0.405,-0.420
'15:06.358',-0.405,-0.435
'15:06.361',-0.390,-0.440
'15:06.364',-0.400,-0.430
'15:06.367',-0.405,-0.420
'15:06.369',-0.405,-0.410
'15:06.372',-0.405,-0.400
'15:06.375',-0.395,-0.405
'15:06.378',-0.390,-0.420
'15:06.381',-0.390,-0.425
'15:06.383',-0.380,-0.425
'15:06.386',-0.375,-0.440
'15:06.389',-0.385,-0.450
'15:06.392',-0.380,-0.455
'15:06.394',-0.380,-0.460
'15:06.397',-0.370,-0.480
'15:06.400',-0.360,-0.470
'15:06.403',-0.345,-0.480
'15:06.406',-0.350,-0.480
'15:06.408',-0.375,-0.480
'15:06.411',-0.395,-0.480
'15:06.414',-0.405,-0.470
'15:06.417',-0.395,-0.470
'15:06.419',-0.400,-0.450
'15:06.422',-0.365,-0.445
'15:06.425',-0.360,-0.420
'15:06.428',-0.365,-0.430
'15:06.431',-0.360,-0.445
'15:06.433',-0.365,-0.465
'15:06.436',-0.365,-0.495
'15:06.439',-0.370,-0.505
'15:06.442',-0.365,-0.510
'15:06.444',-0.365,-0.505
'15:06.447',-0.360,-0.500
'15:06.450',-0.365,-0.495
'15:06.453',-0.365,-0.490
'15:06.456',-0.360,-0.465
'15:06.458',-0.365,-0.470
'15:06.461',-0.355,-0.465
'15:06.464',-0.355,-0.455
'15:06.467',-0.350,-0.490
'15:06.469',-0.350,-0.505
'15:06.472',-0.345,-0.530
'15:06.475',-0.350,-0.545
'15:06.478',-0.345,-0.545
'15:06.481',-0.355,-0.515
'15:06.483',-0.365,-0.500
'15:06.486',-0.365,-0.485
'15:06.489',-0.360,-0.490
'15:06.492',-0.335,-0.485
'15:06.494',-0.325,-0.485
'15:06.497',-0.320,-0.500
'15:06.500',-0.335,-0.510
'15:06.503',-0.345,-0.515
'15:06.506',-0.350,-0.540
'15:06.508',-0.360,-0.545
'15:06.511',-0.365,-0.555
'15:06.514',-0.370,-0.550
'15:06.517',-0.355,-0.545
'15:06.519',-0.350,-0.520
'15:06.522',-0.330,-0.510
'15:06.525',-0.310,-0.480
'15:06.528',-0.305,-0.495
'15:06.531',-0.300,-0.495
'15:06.533',-0.300,-0.515
'15:06.536',-0.295,-0.540
'15:06.539',-0.300,-0.560
'15:06.542',-0.285,-0.575
'15:06.544',-0.280,-0.560
'15:06.547',-0.290,-0.570
'15:06.550',-0.290,-0.540
'15:06.553',-0.285,-0.525
'15:06.556',-0.285,-0.525
'15:06.558',-0.280,-0.525
'15:06.561',-0.280,-0.540
'15:06.564',-0.270,-0.545
'15:06.567',-0.285,-0.545
'15:06.569',-0.285,-0.540
'15:06.572',-0.295,-0.540
'15:06.575',-0.305,-0.545
'15:06.578',-0.315,-0.535
'15:06.581',-0.320,-0.530
'15:06.583',-0.330,-0.525
'15:06.586',-0.320,-0.520
'15:06.589',-0.320,-0.525
'15:06.592',-0.320,-0.510
'15:06.594',-0.325,-0.500
'15:06.597',-0.340,-0.495
'15:06.600',-0.345,-0.495
'15:06.603',-0.350,-0.485
'15:06.606',-0.370,-0.495
'15:06.608',-0.370,-0.495
'15:06.611',-0.375,-0.495
'15:06.614',-0.375,-0.495
'15:06.617',-0.390,-0.485
'15:06.619',-0.390,-0.485
'15:06.622',-0.385,-0.475
'15:06.625',-0.385,-0.445
'15:06.628',-0.380,-0.435
'15:06.631',-0.365,-0.445
'15:06.633',-0.370,-0.445
'15:06.636',-0.375,-0.460
'15:06.639',-0.375,-0.470
'15:06.642',-0.385,-0.475
'15:06.644',-0.385,-0.470
'15:06.647',-0.385,-0.470
'15:06.650',-0.385,-0.465
'15:06.653',-0.385,-0.460
'15:06.656',-0.390,-0.460
'15:06.658',-0.385,-0.465
'15:06.661',-0.380,-0.485
'15:06.664',-0.375,-0.495
'15:06.667',-0.375,-0.495
'15:06.669',-0.380,-0.510
'15:06.672',-0.390,-0.510
'15:06.675',-0.385,-0.515
'15:06.678',-0.390,-0.510
'15:06.681',-0.395,-0.490
'15:06.683',-0.400,-0.470
'15:06.686',-0.395,-0.445
'15:06.689',-0.385,-0.445
'15:06.692',-0.380,-0.445
'15:06.694',-0.390,-0.460
'15:06.697',-0.385,-0.470
'15:06.700',-0.385,-0.490
'15:06.703',-0.390,-0.490
'15:06.706',-0.390,-0.490
'15:06.708',-0.400,-0.480
'15:06.711',-0.410,-0.495
'15:06.714',-0.410,-0.495
'15:06.717',-0.415,-0.495
'15:06.719',-0.400,-0.490
'15:06.722',-0.385,-0.475
'15:06.725',-0.390,-0.450
'15:06.728',-0.385,-0.430
'15:06.731',-0.380,-0.445
'15:06.733',-0.380,-0.465
'15:06.736',-0.390,-0.485
'15:06.739',-0.400,-0.480
'15:06.742',-0.405,-0.475
'15:06.744',-0.420,-0.475
'15:06.747',-0.430,-0.455
'15:06.750',-0.420,-0.450
'15:06.753',-0.410,-0.445
'15:06.756',-0.400,-0.455
'15:06.758',-0.395,-0.460
'15:06.761',-0.395,-0.465
'15:06.764',-0.380,-0.475
'15:06.767',-0.370,-0.470
'15:06.769',-0.350,-0.470
'15:06.772',-0.355,-0.460
'15:06.775',-0.355,-0.450
'15:06.778',-0.355,-0.440
'15:06.781',-0.350,-0.420
'15:06.783',-0.345,-0.410
'15:06.786',-0.350,-0.410
'15:06.789',-0.335,-0.430
'15:06.792',-0.320,-0.445
'15:06.794',-0.300,-0.470
'15:06.797',-0.295,-0.485
'15:06.800',-0.285,-0.485
'15:06.803',-0.290,-0.495
'15:06.806',-0.310,-0.495
'15:06.808',-0.325,-0.505
'15:06.811',-0.345,-0.515
'15:06.814',-0.365,-0.515
'15:06.817',-0.370,-0.500
'15:06.819',-0.365,-0.485
'15:06.822',-0.365,-0.475
'15:06.825',-0.360,-0.470
'15:06.828',-0.360,-0.465
'15:06.831',-0.365,-0.475
'15:06.833',-0.365,-0.475
'15:06.836',-0.375,-0.485
'15:06.839',-0.395,-0.490
'15:06.842',-0.400,-0.475
'15:06.844',-0.410,-0.470
'15:06.847',-0.430,-0.465
'15:06.850',-0.435,-0.455
'15:06.853',-0.435,-0.445
'15:06.856',-0.435,-0.430
'15:06.858',-0.440,-0.405
'15:06.861',-0.435,-0.400
'15:06.864',-0.420,-0.415
'15:06.867',-0.425,-0.435
'15:06.869',-0.425,-0.465
'15:06.872',-0.420,-0.505
'15:06.875',-0.430,-0.505
'15:06.878',-0.430,-0.500
'15:06.881',-0.435,-0.485
'15:06.883',-0.430,-0.480
'15:06.886',-0.430,-0.470
'15:06.889',-0.420,-0.475
'15:06.892',-0.415,-0.470
'15:06.894',-0.395,-0.470
'15:06.897',-0.400,-0.470
'15:06.900',-0.415,-0.470
'15:06.903',-0.440,-0.465
'15:06.906',-0.470,-0.465
'15:06.908',-0.505,-0.465
'15:06.911',-0.510,-0.460
'15:06.914',-0.480,-0.455
'15:06.917',-0.410,-0.470
'15:06.919',-0.290,-0.510
'15:06.922',-0.140,-0.545
'15:06.925',0.035,-0.585
'15:06.928',0.260,-0.620
'15:06.931',0.485,-0.655
'15:06.933',0.690,-0.660
'15:06.936',0.840,-0.680
'15:06.939',0.870,-0.645
'15:06.942',0.760,-0.615
'15:06.944',0.525,-0.550
'15:06.947',0.235,-0.495
'15:06.950',-0.055,-0.430
'15:06.953',-0.285,-0.385
'15:06.956',-0.405,-0.380
'15:06.958',-0.410,-0.390
'15:06.961',-0.370,-0.430
'15:06.964',-0.315,-0.480
'15:06.967',-0.270,-0.510
'15:06.969',-0.255,-0.535
'15:06.972',-0.275,-0.530
'15:06.975',-0.295,-0.530
'15:06.978',-0.330,-0.530
'15:06.981',-0.350,-0.520
'15:06.983',-0.375,-0.495
'15:06.986',-0.375,-0.475
'15:06.989',-0.380,-0.465
'15:06.992',-0.385,-0.455
'15:06.994',-0.385,-0.460
'15:06.997',-0.380,-0.460
'15:07.000',-0.375,-0.465
'15:07.003',-0.375,-0.480
'15:07.006',-0.385,-0.475
'15:07.008',-0.400,-0.485
'15:07.011',-0.405,-0.485
'15:07.014',-0.415,-0.475
'15:07.017',-0.400,-0.455
'15:07.019',-0.400,-0.445
'15:07.022',-0.400,-0.440
'15:07.025',-0.385,-0.440
'15:07.028',-0.385,-0.460
'15:07.031',-0.385,-0.470
'15:07.033',-0.380,-0.470
'15:07.036',-0.395,-0.470
'15:07.039',-0.400,-0.470
'15:07.042',-0.395,-0.470
'15:07.044',-0.395,-0.480
'15:07.047',-0.400,-0.485
'15:07.050',-0.400,-0.490
'15:07.053',-0.400,-0.495
'15:07.056',-0.395,-0.480
'15:07.058',-0.390,-0.460
'15:07.061',-0.385,-0.460
'15:07.064',-0.370,-0.465
'15:07.067',-0.365,-0.465
'15:07.069',-0.365,-0.475
'15:07.072',-0.370,-0.475
'15:07.075',-0.375,-0.485
'15:07.078',-0.385,-0.485
'15:07.081',-0.385,-0.485
'15:07.083',-0.375,-0.470
'15:07.086',-0.365,-0.475
'15:07.089',-0.360,-0.465
'15:07.092',-0.360,-0.455
'15:07.094',-0.355,-0.455
'15:07.097',-0.360,-0.450
'15:07.100',-0.355,-0.455
'15:07.103',-0.370,-0.470
'15:07.106',-0.370,-0.490
'15:07.108',-0.370,-0.500
'15:07.111',-0.380,-0.510
'15:07.114',-0.370,-0.495
'15:07.117',-0.360,-0.500
'15:07.119',-0.355,-0.480
'15:07.122',-0.360,-0.485
'15:07.125',-0.350,-0.470
'15:07.128',-0.345,-0.490
'15:07.131',-0.350,-0.495
'15:07.133',-0.350,-0.505
'15:07.136',-0.340,-0.515
'15:07.139',-0.355,-0.515
'15:07.142',-0.355,-0.520
'15:07.144',-0.350,-0.500
'15:07.147',-0.360,-0.510
'15:07.150',-0.345,-0.495
'15:07.153',-0.350,-0.500
'15:07.156',-0.335,-0.495
'15:07.158',-0.335,-0.480
'15:07.161',-0.345,-0.490
'15:07.164',-0.325,-0.485
'15:07.167',-0.330,-0.500
'15:07.169',-0.330,-0.515
'15:07.172',-0.335,-0.535
'15:07.175',-0.335,-0.535
'15:07.178',-0.330,-0.540
'15:07.181',-0.335,-0.525
'15:07.183',-0.320,-0.525
'15:07.186',-0.320,-0.515
'15:07.189',-0.315,-0.515
'15:07.192',-0.300,-0.520
'15:07.194',-0.285,-0.520
'15:07.197',-0.285,-0.530
'15:07.200',-0.265,-0.530
'15:07.203',-0.260,-0.535
'15:07.206',-0.280,-0.545
'15:07.208',-0.270,-0.550
'15:07.211',-0.260,-0.560
'15:07.214',-0.280,-0.555
'15:07.217',-0.270,-0.545
'15:07.219',-0.260,-0.535
'15:07.222',-0.260,-0.530
'15:07.225',-0.255,-0.520
'15:07.228',-0.255,-0.505
'15:07.231',-0.250,-0.495
'15:07.233',-0.255,-0.505
'15:07.236',-0.265,-0.515
'15:07.239',-0.280,-0.515
'15:07.242',-0.295,-0.505
'15:07.244',-0.310,-0.500
'15:07.247',-0.325,-0.485
'15:07.250',-0.320,-0.470
'15:07.253',-0.325,-0.445
'15:07.256',-0.320,-0.440
'15:07.258',-0.325,-0.430
'15:07.261',-0.335,-0.430
'15:07.264',-0.335,-0.440
'15:07.267',-0.340,-0.455
'15:07.269',-0.345,-0.460
'15:07.272',-0.335,-0.460
'15:07.275',-0.340,-0.460
'15:07.278',-0.340,-0.455
'15:07.281',-0.360,-0.445
'15:07.283',-0.350,-0.435
'15:07.286',-0.360,-0.435
'15:07.289',-0.360,-0.430
'15:07.292',-0.345,-0.430
'15:07.294',-0.355,-0.430
'15:07.297',-0.335,-0.430
'15:07.300',-0.355,-0.440
'15:07.303',-0.360,-0.445
'15:07.306',-0.370,-0.460
'15:07.308',-0.375,-0.470
'15:07.311',-0.370,-0.460
'15:07.314',-0.385,-0.475
'15:07.317',-0.380,-0.450
'15:07.319',-0.370,-0.430
'15:07.322',-0.360,-0.425
'15:07.325',-0.360,-0.420
'15:07.328',-0.360,-0.415
'15:07.331',-0.370,-0.425
'15:07.333',-0.360,-0.420
'15:07.336',-0.365,-0.425
'15:07.339',-0.380,-0.440
'15:07.342',-0.385,-0.435
'15:07.344',-0.395,-0.430
'15:07.347',-0.390,-0.425
'15:07.350',-0.385,-0.420
'15:07.353',-0.395,-0.385
'15:07.356',-0.380,-0.380
'15:07.358',-0.375,-0.365
'15:07.361',-0.380,-0.370
'15:07.364',-0.375,-0.380
'15:07.367',-0.385,-0.390
'15:07.369',-0.390,-0.410
'15:07.372',-0.385,-0.405
'15:07.375',-0.395,-0.400
'15:07.378',-0.405,-0.400
'15:07.381',-0.405,-0.405
'15:07.383',-0.400,-0.415
'15:07.386',-0.410,-0.420
'15:07.389',-0.395,-0.430
'15:07.392',-0.385,-0.435
'15:07.394',-0.390,-0.440
'15:07.397',-0.380,-0.450
'15:07.400',-0.385,-0.440
'15:07.403',-0.390,-0.425
'15:07.406',-0.405,-0.415
'15:07.408',-0.415,-0.405
'15:07.411',-0.420,-0.400
'15:07.414',-0.425,-0.380
'15:07.417',-0.415,-0.375
'15:07.419',-0.415,-0.370
'15:07.422',-0.405,-0.375
'15:07.425',-0.390,-0.365
'15:07.428',-0.385,-0.380
'15:07.431',-0.380,-0.405
'15:07.433',-0.385,-0.400
'15:07.436',-0.395,-0.410
'15:07.439',-0.405,-0.415
'15:07.442',-0.405,-0.400
'15:07.444',-0.400,-0.385
'15:07.447',-0.390,-0.390
'15:07.450',-0.365,-0.395
'15:07.453',-0.350,-0.390
'15:07.456',-0.335,-0.385
'15:07.458',-0.335,-0.370
'15:07.461',-0.320,-0.365
'15:07.464',-0.320,-0.360
'15:07.467',-0.320,-0.375
'15:07.469',-0.320,-0.395
'15:07.472',-0.320,-0.430
'15:07.475',-0.320,-0.440
'15:07.478',-0.310,-0.445
'15:07.481',-0.300,-0.450
'15:07.483',-0.305,-0.435
'15:07.486',-0.310,-0.425
'15:07.489',-0.320,-0.420
'15:07.492',-0.320,-0.420
'15:07.494',-0.325,-0.415
'15:07.497',-0.330,-0.420
'15:07.500',-0.330,-0.415
'15:07.503',-0.340,-0.425
'15:07.506',-0.345,-0.410
'15:07.508',-0.370,-0.410
'15:07.511',-0.380,-0.405
'15:07.514',-0.385,-0.405
'15:07.517',-0.385,-0.395
'15:07.519',-0.380,-0.390
'15:07.522',-0.375,-0.385
'15:07.525',-0.370,-0.385
'15:07.528',-0.380,-0.380
'15:07.531',-0.395,-0.395
'15:07.533',-0.400,-0.400
'15:07.536',-0.425,-0.415
'15:07.539',-0.425,-0.420
'15:07.542',-0.420,-0.410
'15:07.544',-0.415,-0.420
'15:07.547',-0.420,-0.390
'15:07.550',-0.420,-0.375
'15:07.553',-0.410,-0.375
'15:07.556',-0.430,-0.355
'15:07.558',-0.415,-0.335
'15:07.561',-0.400,-0.355
'15:07.564',-0.405,-0.380
'15:07.567',-0.400,-0.390
'15:07.569',-0.400,-0.415
'15:07.572',-0.405,-0.430
'15:07.575',-0.415,-0.430
'15:07.578',-0.420,-0.425
'15:07.581',-0.435,-0.395
'15:07.583',-0.465,-0.360
'15:07.586',-0.480,-0.355
'15:07.589',-0.475,-0.325
'15:07.592',-0.425,-0.335
'15:07.594',-0.350,-0.350
'15:07.597',-0.220,-0.395
'15:07.600',-0.075,-0.460
'15:07.603',0.120,-0.520
'15:07.606',0.330,-0.595
'15:07.608',0.555,-0.630
'15:07.611',0.755,-0.640
'15:07.614',0.885,-0.625
'15:07.617',0.870,-0.590
'15:07.619',0.715,-0.535
'15:07.622',0.455,-0.465
'15:07.625',0.150,-0.395
'15:07.628',-0.120,-0.335
'15:07.631',-0.310,-0.305
'15:07.633',-0.400,-0.305
'15:07.636',-0.395,-0.340
'15:07.639',-0.340,-0.390
'15:07.642',-0.285,-0.435
'15:07.644',-0.260,-0.455
'15:07.647',-0.260,-0.455
'15:07.650',-0.250,-0.440
'15:07.653',-0.270,-0.420
'15:07.656',-0.290,-0.415
'15:07.658',-0.310,-0.410
'15:07.661',-0.330,-0.410
'15:07.664',-0.345,-0.420
'15:07.667',-0.360,-0.415
'15:07.669',-0.365,-0.405
'15:07.672',-0.370,-0.410
'15:07.675',-0.370,-0.410
'15:07.678',-0.365,-0.420
'15:07.681',-0.375,-0.425
'15:07.683',-0.375,-0.420
'15:07.686',-0.370,-0.420
'15:07.689',-0.380,-0.415
'15:07.692',-0.375,-0.405
'15:07.694',-0.370,-0.410
'15:07.697',-0.360,-0.400
'15:07.700',-0.360,-0.375
'15:07.703',-0.360,-0.375
'15:07.706',-0.360,-0.375
'15:07.708',-0.370,-0.390
'15:07.711',-0.375,-0.390
'15:07.714',-0.370,-0.390
'15:07.717',-0.365,-0.385
'15:07.719',-0.355,-0.365
'15:07.722',-0.355,-0.360
'15:07.725',-0.350,-0.340
'15:07.728',-0.340,-0.340
'15:07.731',-0.350,-0.350
'15:07.733',-0.355,-0.355
'15:07.736',-0.365,-0.395
'15:07.739',-0.355,-0.420
'15:07.742',-0.355,-0.445
'15:07.744',-0.350,-0.445
'15:07.747',-0.350,-0.430
'15:07.750',-0.360,-0.405
'15:07.753',-0.360,-0.380
'15:07.756',-0.360,-0.370
'15:07.758',-0.360,-0.380
'15:07.761',-0.340,-0.390
'15:07.764',-0.340,-0.420
'15:07.767',-0.330,-0.430
'15:07.769',-0.330,-0.445
'15:07.772',-0.340,-0.430
'15:07.775',-0.355,-0.435
'15:07.778',-0.345,-0.425
'15:07.781',-0.350,-0.415
'15:07.783',-0.340,-0.430
'15:07.786',-0.325,-0.435
'15:07.789',-0.320,-0.435
'15:07.792',-0.315,-0.440
'15:07.794',-0.310,-0.465
'15:07.797',-0.315,-0.465
'15:07.800',-0.310,-0.455
'15:07.803',-0.320,-0.455
'15:07.806',-0.320,-0.440
'15:07.808',-0.320,-0.425
'15:07.811',-0.320,-0.415
'15:07.814',-0.325,-0.410
'15:07.817',-0.325,-0.420
'15:07.819',-0.315,-0.420
'15:07.822',-0.310,-0.435
'15:07.825',-0.305,-0.450
'15:07.828',-0.295,-0.440
'15:07.831',-0.290,-0.430
'15:07.833',-0.285,-0.405
'15:07.836',-0.295,-0.410
'15:07.839',-0.300,-0.410
'15:07.842',-0.305,-0.430
'15:07.844',-0.310,-0.455
'15:07.847',-0.315,-0.490
'15:07.850',-0.305,-0.505
'15:07.853',-0.305,-0.490
'15:07.856',-0.290,-0.480
'15:07.858',-0.290,-0.455
'15:07.861',-0.295,-0.430
'15:07.864',-0.285,-0.430
'15:07.867',-0.290,-0.445
'15:07.869',-0.290,-0.480
'15:07.872',-0.290,-0.510
'15:07.875',-0.285,-0.520
'15:07.878',-0.285,-0.515
'15:07.881',-0.280,-0.500
'15:07.883',-0.270,-0.465
'15:07.886',-0.260,-0.455
'15:07.889',-0.250,-0.435
'15:07.892',-0.250,-0.435
'15:07.894',-0.245,-0.430
'15:07.897',-0.235,-0.445
'15:07.900',-0.220,-0.470
'15:07.903',-0.215,-0.490
'15:07.906',-0.220,-0.510
'15:07.908',-0.210,-0.515
'15:07.911',-0.230,-0.505
'15:07.914',-0.240,-0.490
'15:07.917',-0.240,-0.500
'15:07.919',-0.240,-0.495
'15:07.922',-0.230,-0.500
'15:07.925',-0.215,-0.490
'15:07.928',-0.215,-0.485
'15:07.931',-0.210,-0.475
'15:07.933',-0.215,-0.470
'15:07.936',-0.230,-0.455
'15:07.939',-0.250,-0.460
'15:07.942',-0.265,-0.470
'15:07.944',-0.285,-0.480
'15:07.947',-0.285,-0.475
'15:07.950',-0.285,-0.465
'15:07.953',-0.280,-0.450
'15:07.956',-0.280,-0.435
'15:07.958',-0.285,-0.420
'15:07.961',-0.280,-0.420
'15:07.964',-0.285,-0.420
'15:07.967',-0.280,-0.420
'15:07.969',-0.280,-0.425
'15:07.972',-0.290,-0.430
'15:07.975',-0.295,-0.425
'15:07.978',-0.305,-0.435
'15:07.981',-0.300,-0.415
'15:07.983',-0.305,-0.425
'15:07.986',-0.305,-0.410
'15:07.989',-0.315,-0.405
'15:07.992',-0.305,-0.390
'15:07.994',-0.300,-0.400
'15:07.997',-0.290,-0.390
'15:08.000',-0.295,-0.400
'15:08.003',-0.300,-0.410
'15:08.006',-0.305,-0.420
'15:08.008',-0.320,-0.405
'15:08.011',-0.320,-0.410
'15:08.014',-0.330,-0.390
'15:08.017',-0.320,-0.380
'15:08.019',-0.320,-0.390
'15:08.022',-0.315,-0.395
'15:08.025',-0.290,-0.380
'15:08.028',-0.280,-0.395
'15:08.031',-0.290,-0.415
'15:08.033',-0.305,-0.400
'15:08.036',-0.310,-0.385
'15:08.039',-0.315,-0.390
'15:08.042',-0.320,-0.380
'15:08.044',-0.315,-0.390
'15:08.047',-0.325,-0.390
'15:08.050',-0.310,-0.400
'15:08.053',-0.310,-0.420
'15:08.056',-0.310,-0.450
'15:08.058',-0.305,-0.450
'15:08.061',-0.300,-0.445
'15:08.064',-0.300,-0.435
'15:08.067',-0.305,-0.415
'15:08.069',-0.325,-0.410
'15:08.072',-0.340,-0.405
'15:08.075',-0.340,-0.420
'15:08.078',-0.340,-0.420
'15:08.081',-0.335,-0.420
'15:08.083',-0.340,-0.415
'15:08.086',-0.340,-0.410
'15:08.089',-0.335,-0.405
'15:08.092',-0.330,-0.390
'15:08.094',-0.320,-0.395
'15:08.097',-0.325,-0.405
'15:08.100',-0.325,-0.395
'15:08.103',-0.320,-0.405
'15:08.106',-0.325,-0.410
'15:08.108',-0.330,-0.400
'15:08.111',-0.340,-0.420
'15:08.114',-0.340,-0.390
'15:08.117',-0.335,-0.395
'15:08.119',-0.335,-0.380
'15:08.122',-0.330,-0.375
'15:08.125',-0.320,-0.380
'15:08.128',-0.310,-0.375
'15:08.131',-0.300,-0.385
'15:08.133',-0.290,-0.385
'15:08.136',-0.285,-0.380
'15:08.139',-0.270,-0.390
'15:08.142',-0.270,-0.390
'15:08.144',-0.270,-0.395
'15:08.147',-0.280,-0.375
'15:08.150',-0.275,-0.360
'15:08.153',-0.270,-0.355
'15:08.156',-0.255,-0.320
'15:08.158',-0.240,-0.330
'15:08.161',-0.225,-0.350
'15:08.164',-0.215,-0.365
'15:08.167',-0.205,-0.395
'15:08.169',-0.210,-0.410
'15:08.172',-0.230,-0.440
'15:08.175',-0.260,-0.465
'15:08.178',-0.275,-0.475
'15:08.181',-0.280,-0.475
'15:08.183',-0.290,-0.465
'15:08.186',-0.280,-0.460
'15:08.189',-0.270,-0.425
'15:08.192',-0.270,-0.425
'15:08.194',-0.275,-0.405
'15:08.197',-0.275,-0.410
'15:08.200',-0.285,-0.410
'15:08.203',-0.295,-0.415
'15:08.206',-0.300,-0.415
'15:08.208',-0.320,-0.405
'15:08.211',-0.325,-0.400
'15:08.214',-0.335,-0.395
'15:08.217',-0.345,-0.385
'15:08.219',-0.350,-0.385
'15:08.222',-0.350,-0.370
'15:08.225',-0.340,-0.360
'15:08.228',-0.340,-0.365
'15:08.231',-0.335,-0.375
'15:08.233',-0.335,-0.375
'15:08.236',-0.335,-0.380
'15:08.239',-0.340,-0.385
'15:08.242',-0.345,-0.390
'15:08.244',-0.345,-0.390
'15:08.247',-0.350,-0.380
'15:08.250',-0.345,-0.385
'15:08.253',-0.340,-0.380
'15:08.256',-0.330,-0.375
'15:08.258',-0.325,-0.365
'15:08.261',-0.315,-0.355
'15:08.264',-0.315,-0.365
'15:08.267',-0.325,-0.365
'15:08.269',-0.365,-0.365
'15:08.272',-0.405,-0.355
'15:08.275',-0.425,-0.350
'15:08.278',-0.425,-0.360
'15:08.281',-0.370,-0.365
'15:08.283',-0.285,-0.405
'15:08.286',-0.165,-0.450
'15:08.289',-0.005,-0.490
'15:08.292',0.190,-0.550
'15:08.294',0.420,-0.590
'15:08.297',0.655,-0.620
'15:08.300',0.850,-0.610
'15:08.303',0.960,-0.590
'15:08.306',0.940,-0.560
'15:08.308',0.770,-0.515
'15:08.311',0.510,-0.460
'15:08.314',0.200,-0.395
'15:08.317',-0.080,-0.340
'15:08.319',-0.265,-0.310
'15:08.322',-0.345,-0.300
'15:08.325',-0.335,-0.325
'15:08.328',-0.285,-0.360
'15:08.331',-0.225,-0.390
'15:08.333',-0.185,-0.430
'15:08.336',-0.175,-0.440
'15:08.339',-0.190,-0.455
'15:08.342',-0.205,-0.435
'15:08.344',-0.220,-0.430
'15:08.347',-0.245,-0.420
'15:08.350',-0.265,-0.410
'15:08.353',-0.285,-0.395
'15:08.356',-0.280,-0.405
'15:08.358',-0.275,-0.390
'15:08.361',-0.280,-0.380
'15:08.364',-0.280,-0.380
'15:08.367',-0.290,-0.375
'15:08.369',-0.280,-0.380
'15:08.372',-0.280,-0.385
'15:08.375',-0.290,-0.380
'15:08.378',-0.290,-0.390
'15:08.381',-0.290,-0.385
'15:08.383',-0.290,-0.385
'15:08.386',-0.280,-0.375
'15:08.389',-0.290,-0.375
'15:08.392',-0.280,-0.370
'15:08.394',-0.285,-0.370
'15:08.397',-0.275,-0.365
'15:08.400',-0.270,-0.365
'15:08.403',-0.270,-0.370
'15:08.406',-0.260,-0.380
'15:08.408',-0.270,-0.390
'15:08.411',-0.285,-0.415
'15:08.414',-0.280,-0.415
'15:08.417',-0.290,-0.420
'15:08.419',-0.295,-0.415
'15:08.422',-0.290,-0.415
'15:08.425',-0.280,-0.395
'15:08.428',-0.270,-0.385
'15:08.431',-0.245,-0.395
'15:08.433',-0.255,-0.380
'15:08.436',-0.250,-0.400
'15:08.439',-0.265,-0.415
'15:08.442',-0.280,-0.415
'15:08.444',-0.285,-0.420
'15:08.447',-0.295,-0.410
'15:08.450',-0.285,-0.410
'15:08.453',-0.280,-0.405
'15:08.456',-0.265,-0.390
'15:08.458',-0.240,-0.395
'15:08.461',-0.250,-0.390
'15:08.464',-0.240,-0.390
'15:08.467',-0.240,-0.395
'15:08.469',-0.255,-0.410
'15:08.472',-0.260,-0.410
'15:08.475',-0.260,-0.420
'15:08.478',-0.260,-0.420
'15:08.481',-0.250,-0.425
'15:08.483',-0.245,-0.420
'15:08.486',-0.250,-0.405
'15:08.489',-0.250,-0.400
'15:08.492',-0.245,-0.395
'15:08.494',-0.225,-0.400
'15:08.497',-0.245,-0.410
'15:08.500',-0.240,-0.415
'15:08.503',-0.225,-0.420
'15:08.506',-0.235,-0.435
'15:08.508',-0.260,-0.450
'15:08.511',-0.255,-0.445
'15:08.514',-0.250,-0.430
'15:08.517',-0.255,-0.425
'15:08.519',-0.240,-0.435
'15:08.522',-0.225,-0.410
'15:08.525',-0.210,-0.420
'15:08.528',-0.210,-0.405
'15:08.531',-0.220,-0.415
'15:08.533',-0.230,-0.420
'15:08.536',-0.240,-0.430
'15:08.539',-0.250,-0.430
'15:08.542',-0.255,-0.445
'15:08.544',-0.250,-0.430
'15:08.547',-0.250,-0.425
'15:08.550',-0.250,-0.420
'15:08.553',-0.245,-0.430
'15:08.556',-0.240,-0.440
'15:08.558',-0.235,-0.435
'15:08.561',-0.245,-0.450
'15:08.564',-0.235,-0.470
'15:08.567',-0.235,-0.475
'15:08.569',-0.225,-0.460
'15:08.572',-0.225,-0.460
'15:08.575',-0.235,-0.475
'15:08.578',-0.225,-0.465
'15:08.581',-0.220,-0.470
'15:08.583',-0.215,-0.460
'15:08.586',-0.205,-0.460
'15:08.589',-0.190,-0.455
'15:08.592',-0.175,-0.455
'15:08.594',-0.170,-0.450
'15:08.597',-0.170,-0.455
'15:08.600',-0.155,-0.460
'15:08.603',-0.170,-0.460
'15:08.606',-0.160,-0.480
'15:08.608',-0.160,-0.485
'15:08.611',-0.160,-0.480
'15:08.614',-0.175,-0.475
'15:08.617',-0.170,-0.455
'15:08.619',-0.175,-0.450
'15:08.622',-0.175,-0.440
'15:08.625',-0.185,-0.435
'15:08.628',-0.170,-0.430
'15:08.631',-0.170,-0.435
'15:08.633',-0.170,-0.430
'15:08.636',-0.180,-0.435
'15:08.639',-0.195,-0.445
'15:08.642',-0.215,-0.445
'15:08.644',-0.220,-0.445
'15:08.647',-0.225,-0.430
'15:08.650',-0.225,-0.420
'15:08.653',-0.225,-0.410
'15:08.656',-0.230,-0.400
'15:08.658',-0.235,-0.390
'15:08.661',-0.225,-0.385
'15:08.664',-0.230,-0.395
'15:08.667',-0.240,-0.400
'15:08.669',-0.250,-0.395
'15:08.672',-0.260,-0.405
'15:08.675',-0.255,-0.400
'15:08.678',-0.260,-0.395
'15:08.681',-0.275,-0.380
'15:08.683',-0.270,-0.395
'15:08.686',-0.260,-0.375
'15:08.689',-0.255,-0.380
'15:08.692',-0.265,-0.375
'15:08.694',-0.265,-0.385
'15:08.697',-0.265,-0.375
'15:08.700',-0.260,-0.370
'15:08.703',-0.250,-0.370
'15:08.706',-0.260,-0.375
'15:08.708',-0.275,-0.385
'15:08.711',-0.290,-0.390
'15:08.714',-0.295,-0.380
'15:08.717',-0.295,-0.380
'15:08.719',-0.290,-0.370
'15:08.722',-0.275,-0.360
'15:08.725',-0.260,-0.350
'15:08.728',-0.255,-0.345
'15:08.731',-0.250,-0.355
'15:08.733',-0.265,-0.350
'15:08.736',-0.260,-0.355
'15:08.739',-0.275,-0.370
'15:08.742',-0.285,-0.375
'15:08.744',-0.285,-0.385
'15:08.747',-0.285,-0.365
'15:08.750',-0.300,-0.365
'15:08.753',-0.285,-0.350
'15:08.756',-0.285,-0.350
'15:08.758',-0.280,-0.350
'15:08.761',-0.280,-0.340
'15:08.764',-0.275,-0.345
'15:08.767',-0.275,-0.350
'15:08.769',-0.280,-0.355
'15:08.772',-0.285,-0.355
'15:08.775',-0.300,-0.365
'15:08.778',-0.295,-0.360
'15:08.781',-0.310,-0.360
'15:08.783',-0.305,-0.365
'15:08.786',-0.290,-0.350
'15:08.789',-0.290,-0.340
'15:08.792',-0.275,-0.330
'15:08.794',-0.280,-0.320
'15:08.797',-0.280,-0.340
'15:08.800',-0.295,-0.335
'15:08.803',-0.290,-0.360
'15:08.806',-0.295,-0.365
'15:08.808',-0.305,-0.370
'15:08.811',-0.305,-0.370
'15:08.814',-0.305,-0.360
'15:08.817',-0.305,-0.345
'15:08.819',-0.295,-0.350
'15:08.822',-0.290,-0.340
'15:08.825',-0.290,-0.330
'15:08.828',-0.270,-0.325
'15:08.831',-0.265,-0.325
'15:08.833',-0.255,-0.330
'15:08.836',-0.245,-0.340
'15:08.839',-0.235,-0.325
'15:08.842',-0.230,-0.340
'15:08.844',-0.240,-0.345
'15:08.847',-0.250,-0.335
'15:08.850',-0.245,-0.325
'15:08.853',-0.235,-0.310
'15:08.856',-0.235,-0.325
'15:08.858',-0.205,-0.300
'15:08.861',-0.195,-0.300
'15:08.864',-0.180,-0.325
'15:08.867',-0.165,-0.350
'15:08.869',-0.175,-0.375
'15:08.872',-0.185,-0.385
'15:08.875',-0.215,-0.395
'15:08.878',-0.240,-0.395
'15:08.881',-0.260,-0.400
'15:08.883',-0.255,-0.395
'15:08.886',-0.255,-0.375
'15:08.889',-0.245,-0.370
'15:08.892',-0.230,-0.350
'15:08.894',-0.235,-0.355
'15:08.897',-0.235,-0.365
'15:08.900',-0.255,-0.360
'15:08.903',-0.260,-0.365
'15:08.906',-0.270,-0.375
'15:08.908',-0.280,-0.380
'15:08.911',-0.280,-0.375
'15:08.914',-0.295,-0.365
'15:08.917',-0.315,-0.350
'15:08.919',-0.325,-0.345
'15:08.922',-0.340,-0.335
'15:08.925',-0.325,-0.320
'15:08.928',-0.310,-0.325
'15:08.931',-0.325,-0.330
'15:08.933',-0.315,-0.340
'15:08.936',-0.310,-0.345
'15:08.939',-0.320,-0.350
'15:08.942',-0.320,-0.355
'15:08.944',-0.325,-0.355
'15:08.947',-0.330,-0.350
'15:08.950',-0.330,-0.350
'15:08.953',-0.325,-0.340
'15:08.956',-0.315,-0.335
'15:08.958',-0.325,-0.330
'15:08.961',-0.305,-0.325
'15:08.964',-0.310,-0.325
'15:08.967',-0.315,-0.330
'15:08.969',-0.325,-0.350
'15:08.972',-0.355,-0.340
'15:08.975',-0.395,-0.335
'15:08.978',-0.415,-0.330
'15:08.981',-0.420,-0.335
'15:08.983',-0.390,-0.340
'15:08.986',-0.300,-0.350
'15:08.989',-0.190,-0.385
'15:08.992',-0.045,-0.435
'15:08.994',0.145,-0.485
'15:08.997',0.380,-0.540
'15:09.000',0.605,-0.585
'15:09.003',0.810,-0.610
'15:09.006',0.945,-0.595
'15:09.008',0.950,-0.570
'15:09.011',0.800,-0.510
'15:09.014',0.530,-0.435
'15:09.017',0.205,-0.350
'15:09.019',-0.090,-0.290
'15:09.022',-0.305,-0.245
'15:09.025',-0.370,-0.250
'15:09.028',-0.350,-0.275
'15:09.031',-0.290,-0.325
'15:09.033',-0.215,-0.370
'15:09.036',-0.190,-0.400
'15:09.039',-0.175,-0.405
'15:09.042',-0.190,-0.415
'15:09.044',-0.200,-0.415
'15:09.047',-0.235,-0.375
'15:09.050',-0.260,-0.370
'15:09.053',-0.280,-0.355
'15:09.056',-0.285,-0.355
'15:09.058',-0.285,-0.350
'15:09.061',-0.285,-0.340
'15:09.064',-0.280,-0.345
'15:09.067',-0.280,-0.340
'15:09.069',-0.285,-0.340
'15:09.072',-0.285,-0.340
'15:09.075',-0.305,-0.345
'15:09.078',-0.300,-0.355
'15:09.081',-0.315,-0.345
'15:09.083',-0.315,-0.345
'15:09.086',-0.315,-0.350
'15:09.089',-0.300,-0.340
'15:09.092',-0.295,-0.340
'15:09.094',-0.290,-0.340
'15:09.097',-0.290,-0.340
'15:09.100',-0.285,-0.340
'15:09.103',-0.275,-0.350
'15:09.106',-0.300,-0.340
'15:09.108',-0.300,-0.350
'15:09.111',-0.300,-0.360
'15:09.114',-0.305,-0.345
'15:09.117',-0.305,-0.355
'15:09.119',-0.300,-0.345
'15:09.122',-0.295,-0.340
'15:09.125',-0.285,-0.340
'15:09.128',-0.285,-0.335
'15:09.131',-0.275,-0.345
'15:09.133',-0.280,-0.350
'15:09.136',-0.280,-0.360
'15:09.139',-0.275,-0.360
'15:09.142',-0.285,-0.365
'15:09.144',-0.290,-0.370
'15:09.147',-0.285,-0.365
'15:09.150',-0.300,-0.370
'15:09.153',-0.285,-0.370
'15:09.156',-0.280,-0.360
'15:09.158',-0.270,-0.355
'15:09.161',-0.260,-0.360
'15:09.164',-0.265,-0.350
'15:09.167',-0.260,-0.350
'15:09.169',-0.265,-0.365
'15:09.172',-0.280,-0.375
'15:09.175',-0.280,-0.385
'15:09.178',-0.285,-0.385
'15:09.181',-0.290,-0.400
'15:09.183',-0.285,-0.400
'15:09.186',-0.285,-0.375
'15:09.189',-0.270,-0.365
'15:09.192',-0.275,-0.370
'15:09.194',-0.275,-0.360
'15:09.197',-0.275,-0.375
'15:09.200',-0.270,-0.375
'15:09.203',-0.275,-0.375
'15:09.206',-0.265,-0.400
'15:09.208',-0.260,-0.405
'15:09.211',-0.275,-0.405
'15:09.214',-0.275,-0.410
'15:09.217',-0.280,-0.400
'15:09.219',-0.280,-0.395
'15:09.222',-0.275,-0.390
'15:09.225',-0.270,-0.385
'15:09.228',-0.265,-0.395
'15:09.231',-0.265,-0.405
'15:09.233',-0.270,-0.400
'15:09.236',-0.265,-0.410
'15:09.239',-0.265,-0.415
'15:09.242',-0.265,-0.435
'15:09.244',-0.275,-0.430
'15:09.247',-0.280,-0.425
'15:09.250',-0.280,-0.405
'15:09.253',-0.270,-0.410
'15:09.256',-0.260,-0.420
'15:09.258',-0.245,-0.405
'15:09.261',-0.240,-0.400
'15:09.264',-0.235,-0.405
'15:09.267',-0.230,-0.420
'15:09.269',-0.205,-0.425
'15:09.272',-0.215,-0.430
'15:09.275',-0.215,-0.430
'15:09.278',-0.195,-0.440
'15:09.281',-0.205,-0.435
'15:09.283',-0.190,-0.440
'15:09.286',-0.175,-0.425
'15:09.289',-0.175,-0.425
'15:09.292',-0.165,-0.420
'15:09.294',-0.165,-0.410
'15:09.297',-0.160,-0.415
'15:09.300',-0.160,-0.415
'15:09.303',-0.170,-0.420
'15:09.306',-0.175,-0.435
'15:09.308',-0.190,-0.420
'15:09.311',-0.195,-0.425
'15:09.314',-0.205,-0.425
'15:09.317',-0.210,-0.410
'15:09.319',-0.200,-0.405
'15:09.322',-0.195,-0.390
'15:09.325',-0.200,-0.380
'15:09.328',-0.205,-0.365
'15:09.331',-0.225,-0.380
'15:09.333',-0.230,-0.380
'15:09.336',-0.230,-0.380
'15:09.339',-0.245,-0.380
'15:09.342',-0.255,-0.390
'15:09.344',-0.260,-0.385
'15:09.347',-0.260,-0.380
'15:09.350',-0.265,-0.375
'15:09.353',-0.265,-0.370
'15:09.356',-0.260,-0.355
'15:09.358',-0.260,-0.350
'15:09.361',-0.255,-0.350
'15:09.364',-0.270,-0.345
'15:09.367',-0.275,-0.340
'15:09.369',-0.275,-0.350
'15:09.372',-0.275,-0.355
'15:09.375',-0.290,-0.360
'15:09.378',-0.280,-0.365
'15:09.381',-0.285,-0.360
'15:09.383',-0.295,-0.355
'15:09.386',-0.285,-0.345
'15:09.389',-0.290,-0.350
'15:09.392',-0.280,-0.340
'15:09.394',-0.270,-0.335
'15:09.397',-0.265,-0.335
'15:09.400',-0.265,-0.340
'15:09.403',-0.275,-0.340
'15:09.406',-0.270,-0.350
'15:09.408',-0.290,-0.355
'15:09.411',-0.305,-0.365
'15:09.414',-0.305,-0.355
'15:09.417',-0.320,-0.350
'15:09.419',-0.305,-0.345
'15:09.422',-0.310,-0.335
'15:09.425',-0.300,-0.325
'15:09.428',-0.295,-0.330
'15:09.431',-0.285,-0.325
'15:09.433',-0.295,-0.320
'15:09.436',-0.290,-0.340
'15:09.439',-0.300,-0.340
'15:09.442',-0.300,-0.355
'15:09.444',-0.310,-0.350
'15:09.447',-0.320,-0.345
'15:09.450',-0.325,-0.350
'15:09.453',-0.315,-0.335
'15:09.456',-0.315,-0.320
'15:09.458',-0.310,-0.330
'15:09.461',-0.305,-0.320
'15:09.464',-0.305,-0.315
'15:09.467',-0.305,-0.325
'15:09.469',-0.315,-0.335
'15:09.472',-0.320,-0.350
'15:09.475',-0.325,-0.350
'15:09.478',-0.330,-0.340
'15:09.481',-0.320,-0.340
'15:09.483',-0.330,-0.335
'15:09.486',-0.310,-0.335
'15:09.489',-0.305,-0.320
'15:09.492',-0.300,-0.315
'15:09.494',-0.295,-0.310
'15:09.497',-0.295,-0.330
'15:09.500',-0.295,-0.325
'15:09.503',-0.305,-0.330
'15:09.506',-0.315,-0.335
'15:09.508',-0.320,-0.345
'15:09.511',-0.310,-0.355
'15:09.514',-0.290,-0.345
'15:09.517',-0.290,-0.320
'15:09.519',-0.280,-0.320
'15:09.522',-0.265,-0.315
'15:09.525',-0.250,-0.310
'15:09.528',-0.250,-0.295
'15:09.531',-0.245,-0.305
'15:09.533',-0.250,-0.295
'15:09.536',-0.245,-0.300
'15:09.539',-0.250,-0.315
'15:09.542',-0.260,-0.320
'15:09.544',-0.250,-0.330
'15:09.547',-0.240,-0.335
'15:09.550',-0.225,-0.340
'15:09.553',-0.210,-0.345
'15:09.556',-0.205,-0.365
'15:09.558',-0.230,-0.360
'15:09.561',-0.245,-0.350
'15:09.564',-0.245,-0.360
'15:09.567',-0.255,-0.350
'15:09.569',-0.255,-0.355
'15:09.572',-0.255,-0.370
'15:09.575',-0.275,-0.360
'15:09.578',-0.280,-0.380
'15:09.581',-0.295,-0.380
'15:09.583',-0.300,-0.365
'15:09.586',-0.300,-0.350
'15:09.589',-0.300,-0.345
'15:09.592',-0.295,-0.320
'15:09.594',-0.305,-0.320
'15:09.597',-0.320,-0.310
'15:09.600',-0.325,-0.325
'15:09.603',-0.335,-0.325
'15:09.606',-0.360,-0.330
'15:09.608',-0.360,-0.335
'15:09.611',-0.375,-0.340
'15:09.614',-0.370,-0.345
'15:09.617',-0.365,-0.335
'15:09.619',-0.360,-0.315
'15:09.622',-0.345,-0.310
'15:09.625',-0.345,-0.310
'15:09.628',-0.335,-0.305
'15:09.631',-0.325,-0.310
'15:09.633',-0.320,-0.325
'15:09.636',-0.320,-0.320
'15:09.639',-0.325,-0.340
'15:09.642',-0.330,-0.340
'15:09.644',-0.340,-0.340
'15:09.647',-0.350,-0.330
'15:09.650',-0.370,-0.330
'15:09.653',-0.385,-0.320
'15:09.656',-0.400,-0.320
'15:09.658',-0.425,-0.295
'15:09.661',-0.430,-0.300
'15:09.664',-0.385,-0.305
'15:09.667',-0.305,-0.315
'15:09.669',-0.205,-0.365
'15:09.672',-0.070,-0.415
'15:09.675',0.110,-0.500
'15:09.678',0.315,-0.565
'15:09.681',0.540,-0.625
'15:09.683',0.755,-0.645
'15:09.686',0.905,-0.635
'15:09.689',0.955,-0.590
'15:09.692',0.845,-0.525
'15:09.694',0.605,-0.430
'15:09.697',0.305,-0.360
'15:09.700',0.030,-0.295
'15:09.703',-0.200,-0.230
'15:09.706',-0.335,-0.205
'15:09.708',-0.370,-0.235
'15:09.711',-0.335,-0.270
'15:09.714',-0.285,-0.310
'15:09.717',-0.245,-0.355
'15:09.719',-0.220,-0.365
'15:09.722',-0.220,-0.385
'15:09.725',-0.225,-0.375
'15:09.728',-0.220,-0.360
'15:09.731',-0.230,-0.345
'15:09.733',-0.250,-0.335
'15:09.736',-0.265,-0.330
'15:09.739',-0.285,-0.340
'15:09.742',-0.290,-0.345
'15:09.744',-0.305,-0.340
'15:09.747',-0.315,-0.355
'15:09.750',-0.310,-0.350
'15:09.753',-0.310,-0.325
'15:09.756',-0.295,-0.330
'15:09.758',-0.290,-0.310
'15:09.761',-0.285,-0.315
'15:09.764',-0.290,-0.320
'15:09.767',-0.285,-0.305
'15:09.769',-0.285,-0.320
'15:09.772',-0.295,-0.325
'15:09.775',-0.315,-0.340
'15:09.778',-0.310,-0.340
'15:09.781',-0.300,-0.335
'15:09.783',-0.305,-0.335
'15:09.786',-0.290,-0.330
'15:09.789',-0.285,-0.335
'15:09.792',-0.280,-0.320
'15:09.794',-0.285,-0.320
'15:09.797',-0.285,-0.320
'15:09.800',-0.280,-0.325
'15:09.803',-0.275,-0.330
'15:09.806',-0.285,-0.345
'15:09.808',-0.295,-0.350
'15:09.811',-0.295,-0.350
'15:09.814',-0.285,-0.350
'15:09.817',-0.285,-0.340
'15:09.819',-0.275,-0.345
'15:09.822',-0.270,-0.335
'15:09.825',-0.260,-0.340
'15:09.828',-0.265,-0.330
'15:09.831',-0.260,-0.335
'15:09.833',-0.270,-0.330
'15:09.836',-0.280,-0.335
'15:09.839',-0.275,-0.350
'15:09.842',-0.275,-0.355
'15:09.844',-0.280,-0.360
'15:09.847',-0.275,-0.360
'15:09.850',-0.285,-0.355
'15:09.853',-0.280,-0.350
'15:09.856',-0.270,-0.340
'15:09.858',-0.260,-0.345
'15:09.861',-0.260,-0.340
'15:09.864',-0.245,-0.350
'15:09.867',-0.245,-0.360
'15:09.869',-0.240,-0.360
'15:09.872',-0.250,-0.370
'15:09.875',-0.265,-0.390
'15:09.878',-0.280,-0.380
'15:09.881',-0.285,-0.390
'15:09.883',-0.280,-0.390
'15:09.886',-0.285,-0.390
'15:09.889',-0.280,-0.380
'15:09.892',-0.265,-0.380
'15:09.894',-0.255,-0.375
'15:09.897',-0.255,-0.380
'15:09.900',-0.255,-0.385
'15:09.903',-0.250,-0.390
'15:09.906',-0.255,-0.400
'15:09.908',-0.260,-0.405
'15:09.911',-0.260,-0.410
'15:09.914',-0.260,-0.405
'15:09.917',-0.260,-0.400
'15:09.919',-0.255,-0.400
'15:09.922',-0.245,-0.390
'15:09.925',-0.240,-0.380
'15:09.928',-0.220,-0.375
'15:09.931',-0.215,-0.400
'15:09.933',-0.210,-0.390
'15:09.936',-0.215,-0.395
'15:09.939',-0.215,-0.410
'15:09.942',-0.215,-0.425
'15:09.944',-0.220,-0.425
'15:09.947',-0.215,-0.420
'15:09.950',-0.215,-0.425
'15:09.953',-0.200,-0.425
'15:09.956',-0.190,-0.405
'15:09.958',-0.170,-0.400
'15:09.961',-0.150,-0.400
'15:09.964',-0.160,-0.420
'15:09.967',-0.150,-0.400
'15:09.969',-0.150,-0.415
'15:09.972',-0.160,-0.430
'15:09.975',-0.160,-0.430
'15:09.978',-0.160,-0.435
'15:09.981',-0.160,-0.430
'15:09.983',-0.160,-0.420
'15:09.986',-0.145,-0.410
'15:09.989',-0.150,-0.395
'15:09.992',-0.155,-0.395
'15:09.994',-0.155,-0.385
'15:09.997',-0.170,-0.395
'15:10.000',-0.170,-0.375
'15:10.003',-0.185,-0.390
'15:10.006',-0.200,-0.385
'15:10.008',-0.205,-0.385
'15:10.011',-0.225,-0.385
'15:10.014',-0.230,-0.385
'15:10.017',-0.230,-0.375
'15:10.019',-0.235,-0.375
'15:10.022',-0.215,-0.340
'15:10.025',-0.215,-0.345
'15:10.028',-0.210,-0.330
'15:10.031',-0.220,-0.340
'15:10.033',-0.215,-0.345
'15:10.036',-0.235,-0.355
'15:10.039',-0.255,-0.355
'15:10.042',-0.270,-0.365
'15:10.044',-0.275,-0.365
'15:10.047',-0.275,-0.365
'15:10.050',-0.275,-0.350
'15:10.053',-0.260,-0.350
'15:10.056',-0.250,-0.335
'15:10.058',-0.250,-0.315
'15:10.061',-0.240,-0.330
'15:10.064',-0.250,-0.325
'15:10.067',-0.255,-0.345
'15:10.069',-0.265,-0.345
'15:10.072',-0.265,-0.350
'15:10.075',-0.265,-0.350
'15:10.078',-0.275,-0.360
'15:10.081',-0.290,-0.360
'15:10.083',-0.290,-0.350
'15:10.086',-0.285,-0.345
'15:10.089',-0.285,-0.345
'15:10.092',-0.275,-0.335
'15:10.094',-0.260,-0.325
'15:10.097',-0.265,-0.330
'15:10.100',-0.260,-0.330
'15:10.103',-0.280,-0.330
'15:10.106',-0.280,-0.325
'15:10.108',-0.290,-0.345
'15:10.111',-0.290,-0.345
'15:10.114',-0.300,-0.345
'15:10.117',-0.295,-0.345
'15:10.119',-0.295,-0.325
'15:10.122',-0.280,-0.330
'15:10.125',-0.280,-0.320
'15:10.128',-0.280,-0.310
'15:10.131',-0.285,-0.310
'15:10.133',-0.290,-0.320
'15:10.136',-0.305,-0.330
'15:10.139',-0.305,-0.340
'15:10.142',-0.315,-0.345
'15:10.144',-0.310,-0.365
'15:10.147',-0.310,-0.340
'15:10.150',-0.305,-0.335
'15:10.153',-0.295,-0.330
'15:10.156',-0.295,-0.320
'15:10.158',-0.290,-0.315
'15:10.161',-0.285,-0.315
'15:10.164',-0.285,-0.320
'15:10.167',-0.270,-0.320
'15:10.169',-0.275,-0.340
'15:10.172',-0.270,-0.335
'15:10.175',-0.265,-0.325
'15:10.178',-0.255,-0.325
'15:10.181',-0.255,-0.320
'15:10.183',-0.260,-0.325
'15:10.186',-0.255,-0.310
'15:10.189',-0.260,-0.305
'15:10.192',-0.240,-0.305
'15:10.194',-0.240,-0.300
'15:10.197',-0.230,-0.310
'15:10.200',-0.220,-0.320
'15:10.203',-0.205,-0.315
'15:10.206',-0.185,-0.340
'15:10.208',-0.180,-0.360
'15:10.211',-0.195,-0.375
'15:10.214',-0.215,-0.380
'15:10.217',-0.230,-0.380
'15:10.219',-0.245,-0.365
'15:10.222',-0.240,-0.355
'15:10.225',-0.240,-0.345
'15:10.228',-0.230,-0.330
'15:10.231',-0.225,-0.335
'15:10.233',-0.235,-0.330
'15:10.236',-0.250,-0.335
'15:10.239',-0.255,-0.335
'15:10.242',-0.275,-0.340
'15:10.244',-0.290,-0.335
'15:10.247',-0.300,-0.325
'15:10.250',-0.305,-0.315
'15:10.253',-0.310,-0.310
'15:10.256',-0.305,-0.310
'15:10.258',-0.310,-0.315
'15:10.261',-0.310,-0.320
'15:10.264',-0.305,-0.320
'15:10.267',-0.310,-0.315
'15:10.269',-0.315,-0.335
'15:10.272',-0.320,-0.350
'15:10.275',-0.335,-0.350
'15:10.278',-0.335,-0.365
'15:10.281',-0.340,-0.360
'15:10.283',-0.345,-0.360
'15:10.286',-0.340,-0.350
'15:10.289',-0.335,-0.330
'15:10.292',-0.325,-0.330
'15:10.294',-0.300,-0.330
'15:10.297',-0.290,-0.335
'15:10.300',-0.290,-0.325
'15:10.303',-0.295,-0.330
'15:10.306',-0.305,-0.340
'15:10.308',-0.340,-0.350
'15:10.311',-0.365,-0.350
'15:10.314',-0.370,-0.350
'15:10.317',-0.330,-0.350
'15:10.319',-0.250,-0.350
'15:10.322',-0.100,-0.370
'15:10.325',0.070,-0.375
'15:10.328',0.285,-0.400
'15:10.331',0.530,-0.445
'15:10.333',0.755,-0.505
'15:10.336',0.965,-0.570
'15:10.339',1.110,-0.635
'15:10.342',1.150,-0.660
'15:10.344',1.075,-0.655
'15:10.347',0.880,-0.630
'15:10.350',0.640,-0.590
'15:10.353',0.390,-0.555
'15:10.356',0.195,-0.520
'15:10.358',0.070,-0.485
'15:10.361',0.035,-0.460
'15:10.364',0.025,-0.460
'15:10.367',0.020,-0.430
'15:10.369',-0.015,-0.415
'15:10.372',-0.060,-0.395
'15:10.375',-0.130,-0.375
'15:10.378',-0.185,-0.350
'15:10.381',-0.245,-0.340
'15:10.383',-0.275,-0.350
'15:10.386',-0.280,-0.385
'15:10.389',-0.285,-0.395
'15:10.392',-0.275,-0.410
'15:10.394',-0.260,-0.415
'15:10.397',-0.260,-0.415
'15:10.400',-0.260,-0.390
'15:10.403',-0.275,-0.375
'15:10.406',-0.285,-0.385
'15:10.408',-0.315,-0.365
'15:10.411',-0.325,-0.365
'15:10.414',-0.335,-0.365
'15:10.417',-0.345,-0.350
'15:10.419',-0.345,-0.365
'15:10.422',-0.335,-0.350
'15:10.425',-0.315,-0.340
'15:10.428',-0.300,-0.335
'15:10.431',-0.295,-0.330
'15:10.433',-0.295,-0.320
'15:10.436',-0.295,-0.330
'15:10.439',-0.315,-0.340
'15:10.442',-0.320,-0.345
'15:10.444',-0.320,-0.340
'15:10.447',-0.320,-0.330
'15:10.450',-0.320,-0.325
'15:10.453',-0.320,-0.325
'15:10.456',-0.315,-0.325
'15:10.458',-0.310,-0.335
'15:10.461',-0.295,-0.325
'15:10.464',-0.290,-0.325
'15:10.467',-0.295,-0.305
'15:10.469',-0.310,-0.315
'15:10.472',-0.315,-0.310
'15:10.475',-0.315,-0.320
'15:10.478',-0.315,-0.330
'15:10.481',-0.315,-0.330
'15:10.483',-0.325,-0.330
'15:10.486',-0.330,-0.340
'15:10.489',-0.315,-0.320
'15:10.492',-0.320,-0.320
'15:10.494',-0.290,-0.315
'15:10.497',-0.280,-0.300
'15:10.500',-0.275,-0.285
'15:10.503',-0.275,-0.295
'15:10.506',-0.290,-0.320
'15:10.508',-0.305,-0.345
'15:10.511',-0.330,-0.385
'15:10.514',-0.320,-0.400
'15:10.517',-0.315,-0.425
'15:10.519',-0.300,-0.410
'15:10.522',-0.290,-0.400
'15:10.525',-0.270,-0.410
'15:10.528',-0.270,-0.390
'15:10.531',-0.275,-0.390
'15:10.533',-0.290,-0.395
'15:10.536',-0.305,-0.395
'15:10.539',-0.320,-0.405
'15:10.542',-0.330,-0.405
'15:10.544',-0.335,-0.405
'15:10.547',-0.335,-0.400
'15:10.550',-0.330,-0.405
'15:10.553',-0.315,-0.395
'15:10.556',-0.315,-0.395
'15:10.558',-0.320,-0.380
'15:10.561',-0.315,-0.375
'15:10.564',-0.315,-0.350
'15:10.567',-0.310,-0.340
'15:10.569',-0.330,-0.350
'15:10.572',-0.330,-0.360
'15:10.575',-0.340,-0.380
'15:10.578',-0.325,-0.405
'15:10.581',-0.330,-0.410
'15:10.583',-0.345,-0.385
'15:10.586',-0.340,-0.355
'15:10.589',-0.335,-0.320
'15:10.592',-0.330,-0.305
'15:10.594',-0.320,-0.310
'15:10.597',-0.325,-0.330
'15:10.600',-0.310,-0.370
'15:10.603',-0.300,-0.405
'15:10.606',-0.305,-0.430
'15:10.608',-0.300,-0.465
'15:10.611',-0.290,-0.460
'15:10.614',-0.280,-0.450
'15:10.617',-0.265,-0.440
'15:10.619',-0.250,-0.425
'15:10.622',-0.240,-0.405
'15:10.625',-0.240,-0.390
'15:10.628',-0.225,-0.385
'15:10.631',-0.225,-0.400
'15:10.633',-0.215,-0.405
'15:10.636',-0.220,-0.405
'15:10.639',-0.220,-0.400
'15:10.642',-0.220,-0.415
'15:10.644',-0.235,-0.400
'15:10.647',-0.235,-0.370
'15:10.650',-0.240,-0.350
'15:10.653',-0.225,-0.315
'15:10.656',-0.220,-0.310
'15:10.658',-0.210,-0.325
'15:10.661',-0.210,-0.355
'15:10.664',-0.210,-0.375
'15:10.667',-0.220,-0.395
'15:10.669',-0.235,-0.385
'15:10.672',-0.235,-0.370
'15:10.675',-0.255,-0.330
'15:10.678',-0.255,-0.295
'15:10.681',-0.260,-0.280
'15:10.683',-0.265,-0.275
'15:10.686',-0.260,-0.290
'15:10.689',-0.250,-0.310
'15:10.692',-0.260,-0.345
'15:10.694',-0.270,-0.375
'15:10.697',-0.275,-0.390
'15:10.700',-0.265,-0.395
'15:10.703',-0.265,-0.385
'15:10.706',-0.265,-0.370
'15:10.708',-0.265,-0.355
'15:10.711',-0.265,-0.340
'15:10.714',-0.280,-0.335
'15:10.717',-0.305,-0.295
'15:10.719',-0.310,-0.290
'15:10.722',-0.320,-0.280
'15:10.725',-0.310,-0.265
'15:10.728',-0.295,-0.260
'15:10.731',-0.285,-0.265
'15:10.733',-0.275,-0.275
'15:10.736',-0.275,-0.280
'15:10.739',-0.275,-0.295
'15:10.742',-0.280,-0.310
'15:10.744',-0.300,-0.320
'15:10.747',-0.300,-0.320
'15:10.750',-0.305,-0.345
'15:10.753',-0.305,-0.370
'15:10.756',-0.295,-0.375
'15:10.758',-0.280,-0.390
'15:10.761',-0.280,-0.375
'15:10.764',-0.275,-0.370
'15:10.767',-0.265,-0.350
'15:10.769',-0.265,-0.350
'15:10.772',-0.280,-0.340
'15:10.775',-0.280,-0.335
'15:10.778',-0.295,-0.330
'15:10.781',-0.305,-0.305
'15:10.783',-0.305,-0.300
'15:10.786',-0.315,-0.305
'15:10.789',-0.310,-0.305
'15:10.792',-0.310,-0.305
'15:10.794',-0.295,-0.300
'15:10.797',-0.285,-0.290
'15:10.800',-0.265,-0.285
'15:10.803',-0.275,-0.295
'15:10.806',-0.280,-0.305
'15:10.808',-0.300,-0.310
'15:10.811',-0.315,-0.300
'15:10.814',-0.310,-0.285
'15:10.817',-0.305,-0.270
'15:10.819',-0.295,-0.250
'15:10.822',-0.275,-0.240
'15:10.825',-0.270,-0.250
'15:10.828',-0.275,-0.250
'15:10.831',-0.285,-0.255
'15:10.833',-0.270,-0.250
'15:10.836',-0.260,-0.265
'15:10.839',-0.260,-0.300
'15:10.842',-0.245,-0.310
'15:10.844',-0.245,-0.315
'15:10.847',-0.245,-0.320
'15:10.850',-0.240,-0.315
'15:10.853',-0.240,-0.320
'15:10.856',-0.225,-0.320
'15:10.858',-0.195,-0.330
'15:10.861',-0.185,-0.345
'15:10.864',-0.180,-0.355
'15:10.867',-0.185,-0.360
'15:10.869',-0.210,-0.375
'15:10.872',-0.230,-0.380
'15:10.875',-0.245,-0.390
'15:10.878',-0.255,-0.390
'15:10.881',-0.265,-0.375
'15:10.883',-0.260,-0.350
'15:10.886',-0.255,-0.325
'15:10.889',-0.250,-0.315
'15:10.892',-0.265,-0.300
'15:10.894',-0.265,-0.285
'15:10.897',-0.270,-0.290
'15:10.900',-0.280,-0.280
'15:10.903',-0.290,-0.275
'15:10.906',-0.310,-0.270
'15:10.908',-0.305,-0.270
'15:10.911',-0.320,-0.255
'15:10.914',-0.325,-0.235
'15:10.917',-0.325,-0.230
'15:10.919',-0.320,-0.220
'15:10.922',-0.320,-0.225
'15:10.925',-0.320,-0.240
'15:10.928',-0.310,-0.240
'15:10.931',-0.325,-0.260
'15:10.933',-0.310,-0.280
'15:10.936',-0.315,-0.285
'15:10.939',-0.300,-0.320
'15:10.942',-0.305,-0.355
'15:10.944',-0.320,-0.390
'15:10.947',-0.305,-0.390
'15:10.950',-0.320,-0.370
'15:10.953',-0.305,-0.340
'15:10.956',-0.295,-0.305
'15:10.958',-0.295,-0.270
'15:10.961',-0.315,-0.255
'15:10.964',-0.345,-0.260
'15:10.967',-0.375,-0.255
'15:10.969',-0.390,-0.270
'15:10.972',-0.395,-0.295
'15:10.975',-0.355,-0.310
'15:10.978',-0.290,-0.310
'15:10.981',-0.185,-0.310
'15:10.983',-0.035,-0.345
'15:10.986',0.175,-0.370
'15:10.989',0.395,-0.405
'15:10.992',0.625,-0.430
'15:10.994',0.840,-0.445
'15:10.997',1.010,-0.445
'15:11.000',1.085,-0.410
'15:11.003',1.000,-0.385
'15:11.006',0.770,-0.350
'15:11.008',0.450,-0.310
'15:11.011',0.110,-0.270
'15:11.014',-0.150,-0.235
'15:11.017',-0.320,-0.195
'15:11.019',-0.370,-0.205
'15:11.022',-0.335,-0.190
'15:11.025',-0.280,-0.210
'15:11.028',-0.220,-0.195
'15:11.031',-0.190,-0.195
'15:11.033',-0.190,-0.210
'15:11.036',-0.195,-0.245
'15:11.039',-0.200,-0.290
'15:11.042',-0.225,-0.325
'15:11.044',-0.245,-0.320
'15:11.047',-0.250,-0.290
'15:11.050',-0.260,-0.245
'15:11.053',-0.270,-0.225
'15:11.056',-0.275,-0.230
'15:11.058',-0.280,-0.260
'15:11.061',-0.285,-0.290
'15:11.064',-0.275,-0.295
'15:11.067',-0.270,-0.305
'15:11.069',-0.260,-0.315
'15:11.072',-0.260,-0.295
'15:11.075',-0.270,-0.280
'15:11.078',-0.290,-0.270
'15:11.081',-0.295,-0.280
'15:11.083',-0.300,-0.285
'15:11.086',-0.305,-0.315
'15:11.089',-0.310,-0.325
'15:11.092',-0.300,-0.320
'15:11.094',-0.280,-0.300
'15:11.097',-0.260,-0.290
'15:11.100',-0.250,-0.285
'15:11.103',-0.245,-0.275
'15:11.106',-0.260,-0.280
'15:11.108',-0.280,-0.290
'15:11.111',-0.285,-0.280
'15:11.114',-0.290,-0.265
'15:11.117',-0.290,-0.255
'15:11.119',-0.285,-0.235
'15:11.122',-0.285,-0.235
'15:11.125',-0.285,-0.230
'15:11.128',-0.260,-0.220
'15:11.131',-0.260,-0.235
'15:11.133',-0.260,-0.245
'15:11.136',-0.260,-0.255
'15:11.139',-0.260,-0.260
'15:11.142',-0.260,-0.260
'15:11.144',-0.270,-0.245
'15:11.147',-0.270,-0.220
'15:11.150',-0.270,-0.195
'15:11.153',-0.270,-0.175
'15:11.156',-0.260,-0.180
'15:11.158',-0.245,-0.175
'15:11.161',-0.225,-0.185
'15:11.164',-0.215,-0.215
'15:11.167',-0.215,-0.270
'15:11.169',-0.230,-0.315
'15:11.172',-0.255,-0.370
'15:11.175',-0.260,-0.375
'15:11.178',-0.255,-0.345
'15:11.181',-0.245,-0.320
'15:11.183',-0.240,-0.295
'15:11.186',-0.215,-0.295
'15:11.189',-0.205,-0.325
'15:11.192',-0.205,-0.355
'15:11.194',-0.210,-0.390
'15:11.197',-0.230,-0.385
'15:11.200',-0.240,-0.355
'15:11.203',-0.225,-0.320
'15:11.206',-0.220,-0.315
'15:11.208',-0.215,-0.315
'15:11.211',-0.205,-0.325
'15:11.214',-0.205,-0.330
'15:11.217',-0.225,-0.325
'15:11.219',-0.235,-0.305
'15:11.222',-0.240,-0.270
'15:11.225',-0.245,-0.235
'15:11.228',-0.225,-0.215
'15:11.231',-0.215,-0.210
'15:11.233',-0.215,-0.235
'15:11.236',-0.210,-0.280
'15:11.239',-0.225,-0.335
'15:11.242',-0.225,-0.375
'15:11.244',-0.220,-0.400
'15:11.247',-0.225,-0.385
'15:11.250',-0.210,-0.355
'15:11.253',-0.210,-0.315
'15:11.256',-0.205,-0.270
'15:11.258',-0.195,-0.265
'15:11.261',-0.190,-0.255
'15:11.264',-0.185,-0.295
'15:11.267',-0.170,-0.330
'15:11.269',-0.160,-0.355
'15:11.272',-0.125,-0.370
'15:11.275',-0.115,-0.365
'15:11.278',-0.125,-0.345
'15:11.281',-0.135,-0.305
'15:11.283',-0.140,-0.290
'15:11.286',-0.135,-0.285
'15:11.289',-0.125,-0.280
'15:11.292',-0.110,-0.265
'15:11.294',-0.095,-0.265
'15:11.297',-0.080,-0.285
'15:11.300',-0.075,-0.305
'15:11.303',-0.085,-0.320
'15:11.306',-0.085,-0.340
'15:11.308',-0.105,-0.355
'15:11.311',-0.115,-0.360
'15:11.314',-0.125,-0.350
'15:11.317',-0.145,-0.325
'15:11.319',-0.165,-0.310
'15:11.322',-0.170,-0.285
'15:11.325',-0.170,-0.270
'15:11.328',-0.155,-0.255
'15:11.331',-0.150,-0.235
'15:11.333',-0.150,-0.215
'15:11.336',-0.165,-0.185
'15:11.339',-0.185,-0.185
'15:11.342',-0.205,-0.185
'15:11.344',-0.215,-0.185
'15:11.347',-0.220,-0.205
'15:11.350',-0.225,-0.245
'15:11.353',-0.200,-0.275
'15:11.356',-0.200,-0.275
'15:11.358',-0.185,-0.245
'15:11.361',-0.160,-0.180
'15:11.364',-0.150,-0.150
'15:11.367',-0.150,-0.170
'15:11.369',-0.160,-0.250
'15:11.372',-0.175,-0.325
'15:11.375',-0.190,-0.395
'15:11.378',-0.190,-0.415
'15:11.381',-0.195,-0.400
'15:11.383',-0.190,-0.350
'15:11.386',-0.180,-0.320
'15:11.389',-0.175,-0.290
'15:11.392',-0.180,-0.255
'15:11.394',-0.175,-0.240
'15:11.397',-0.180,-0.245
'15:11.400',-0.190,-0.240
'15:11.403',-0.205,-0.235
'15:11.406',-0.195,-0.240
'15:11.408',-0.200,-0.230
'15:11.411',-0.205,-0.245
'15:11.414',-0.210,-0.235
'15:11.417',-0.215,-0.230
'15:11.419',-0.220,-0.215
'15:11.422',-0.220,-0.220
'15:11.425',-0.215,-0.215
'15:11.428',-0.185,-0.195
'15:11.431',-0.180,-0.175
'15:11.433',-0.180,-0.170
'15:11.436',-0.180,-0.185
'15:11.439',-0.190,-0.225
'15:11.442',-0.190,-0.260
'15:11.444',-0.200,-0.295
'15:11.447',-0.200,-0.305
'15:11.450',-0.205,-0.260
'15:11.453',-0.210,-0.215
'15:11.456',-0.205,-0.175
'15:11.458',-0.195,-0.170
'15:11.461',-0.175,-0.180
'15:11.464',-0.180,-0.210
'15:11.467',-0.170,-0.230
'15:11.469',-0.190,-0.250
'15:11.472',-0.190,-0.260
'15:11.475',-0.195,-0.260
'15:11.478',-0.200,-0.245
'15:11.481',-0.205,-0.240
'15:11.483',-0.210,-0.235
'15:11.486',-0.200,-0.240
'15:11.489',-0.195,-0.240
'15:11.492',-0.190,-0.220
'15:11.494',-0.165,-0.215
'15:11.497',-0.150,-0.205
'15:11.500',-0.130,-0.205
'15:11.503',-0.110,-0.215
'15:11.506',-0.100,-0.225
'15:11.508',-0.095,-0.245
'15:11.511',-0.100,-0.255
'15:11.514',-0.125,-0.255
'15:11.517',-0.140,-0.240
'15:11.519',-0.140,-0.220
'15:11.522',-0.110,-0.190
'15:11.525',-0.080,-0.160
'15:11.528',-0.055,-0.170
'15:11.531',-0.040,-0.200
'15:11.533',-0.020,-0.245
'15:11.536',-0.010,-0.295
'15:11.539',0.005,-0.295
'15:11.542',0.015,-0.285
'15:11.544',0.010,-0.275
'15:11.547',-0.030,-0.300
'15:11.550',-0.080,-0.325
'15:11.553',-0.145,-0.330
'15:11.556',-0.195,-0.310
'15:11.558',-0.230,-0.285
'15:11.561',-0.235,-0.235
'15:11.564',-0.210,-0.195
'15:11.567',-0.185,-0.185
'15:11.569',-0.155,-0.185
'15:11.572',-0.130,-0.215
'15:11.575',-0.135,-0.230
'15:11.578',-0.155,-0.270
'15:11.581',-0.170,-0.295
'15:11.583',-0.190,-0.295
'15:11.586',-0.195,-0.265
'15:11.589',-0.185,-0.250
'15:11.592',-0.185,-0.255
'15:11.594',-0.185,-0.280
'15:11.597',-0.175,-0.290
'15:11.600',-0.165,-0.295
'15:11.603',-0.155,-0.230
'15:11.606',-0.145,-0.180
'15:11.608',-0.140,-0.130
'15:11.611',-0.150,-0.120
'15:11.614',-0.150,-0.150
'15:11.617',-0.165,-0.220
'15:11.619',-0.160,-0.280
'15:11.622',-0.165,-0.305
'15:11.625',-0.160,-0.290
'15:11.628',-0.155,-0.270
'15:11.631',-0.150,-0.260
'15:11.633',-0.170,-0.270
'15:11.636',-0.195,-0.275
'15:11.639',-0.220,-0.265
'15:11.642',-0.225,-0.270
'15:11.644',-0.180,-0.300
'15:11.647',-0.095,-0.335
'15:11.650',0.030,-0.380
'15:11.653',0.225,-0.410
'15:11.656',0.445,-0.420
'15:11.658',0.695,-0.425
'15:11.661',0.945,-0.430
'15:11.664',1.170,-0.435
'15:11.667',1.300,-0.425
'15:11.669',1.265,-0.385
'15:11.672',1.065,-0.345
'15:11.675',0.725,-0.320
'15:11.678',0.365,-0.255
'15:11.681',0.040,-0.215
'15:11.683',-0.160,-0.190
'15:11.686',-0.225,-0.175
'15:11.689',-0.185,-0.200
'15:11.692',-0.105,-0.210
'15:11.694',-0.025,-0.240
'15:11.697',0.025,-0.265
'15:11.700',0.045,-0.295
'15:11.703',0.025,-0.310
'15:11.706',-0.015,-0.320
'15:11.708',-0.045,-0.300
'15:11.711',-0.085,-0.280
'15:11.714',-0.100,-0.265
'15:11.717',-0.125,-0.255
'15:11.719',-0.130,-0.270
'15:11.722',-0.110,-0.315
'15:11.725',-0.105,-0.360
'15:11.728',-0.095,-0.380
'15:11.731',-0.095,-0.385
'15:11.733',-0.100,-0.345
'15:11.736',-0.105,-0.330
'15:11.739',-0.120,-0.320
'15:11.742',-0.125,-0.310
'15:11.744',-0.125,-0.330
'15:11.747',-0.125,-0.355
'15:11.750',-0.135,-0.350
'15:11.753',-0.125,-0.355
'15:11.756',-0.110,-0.335
'15:11.758',-0.105,-0.320
'15:11.761',-0.095,-0.300
'15:11.764',-0.080,-0.270
'15:11.767',-0.085,-0.260
'15:11.769',-0.080,-0.250
'15:11.772',-0.085,-0.260
'15:11.775',-0.095,-0.310
'15:11.778',-0.105,-0.340
'15:11.781',-0.085,-0.365
'15:11.783',-0.080,-0.335
'15:11.786',-0.075,-0.310
'15:11.789',-0.060,-0.255
'15:11.792',-0.040,-0.240
'15:11.794',-0.030,-0.280
'15:11.797',-0.040,-0.345
'15:11.800',-0.065,-0.390
'15:11.803',-0.065,-0.405
'15:11.806',-0.080,-0.395
'15:11.808',-0.100,-0.350
'15:11.811',-0.100,-0.320
'15:11.814',-0.100,-0.310
'15:11.817',-0.080,-0.310
'15:11.819',-0.060,-0.325
'15:11.822',-0.035,-0.295
'15:11.825',-0.030,-0.250
'15:11.828',-0.045,-0.210
'15:11.831',-0.045,-0.225
'15:11.833',-0.050,-0.280
'15:11.836',-0.035,-0.350
'15:11.839',-0.030,-0.415
'15:11.842',-0.020,-0.465
'15:11.844',-0.030,-0.490
'15:11.847',-0.055,-0.495
'15:11.850',-0.080,-0.485
'15:11.853',-0.090,-0.450
'15:11.856',-0.090,-0.390
'15:11.858',-0.070,-0.355
'15:11.861',-0.050,-0.330
'15:11.864',-0.030,-0.305
'15:11.867',-0.025,-0.310
'15:11.869',-0.015,-0.300
'15:11.872',-0.015,-0.335
'15:11.875',-0.025,-0.380
'15:11.878',-0.030,-0.395
'15:11.881',-0.040,-0.385
'15:11.883',-0.040,-0.355
'15:11.886',-0.040,-0.305
'15:11.889',-0.040,-0.290
'15:11.892',-0.015,-0.270
'15:11.894',-0.015,-0.285
'15:11.897',0.005,-0.315
'15:11.900',0.015,-0.345
'15:11.903',0.005,-0.390
'15:11.906',-0.005,-0.450
'15:11.908',-0.030,-0.500
'15:11.911',-0.035,-0.530
'15:11.914',-0.015,-0.530
'15:11.917',-0.010,-0.505
'15:11.919',0.000,-0.455
'15:11.922',0.005,-0.410
'15:11.925',0.030,-0.385
'15:11.928',0.045,-0.385
'15:11.931',0.070,-0.395
'15:11.933',0.080,-0.425
'15:11.936',0.080,-0.455
'15:11.939',0.075,-0.485
'15:11.942',0.060,-0.505
'15:11.944',0.055,-0.505
'15:11.947',0.050,-0.485
'15:11.950',0.030,-0.445
'15:11.953',0.020,-0.415
'15:11.956',0.020,-0.415
'15:11.958',0.015,-0.405
'15:11.961',0.015,-0.390
'15:11.964',0.015,-0.400
'15:11.967',0.025,-0.395
'15:11.969',0.030,-0.405
'15:11.972',0.030,-0.420
'15:11.975',0.025,-0.420
'15:11.978',-0.005,-0.430
'15:11.981',-0.005,-0.435
'15:11.983',-0.015,-0.445
'15:11.986',-0.015,-0.455
'15:11.989',-0.020,-0.445
'15:11.992',-0.030,-0.445
'15:11.994',-0.020,-0.425
'15:11.997',-0.015,-0.410
'15:12.000',-0.030,-0.390
'15:12.003',-0.045,-0.385
'15:12.006',-0.045,-0.390
'15:12.008',-0.055,-0.400
'15:12.011',-0.065,-0.410
'15:12.014',-0.065,-0.415
'15:12.017',-0.070,-0.390
'15:12.019',-0.060,-0.360
'15:12.022',-0.070,-0.355
'15:12.025',-0.075,-0.340
'15:12.028',-0.075,-0.345
'15:12.031',-0.080,-0.335
'15:12.033',-0.075,-0.325
'15:12.036',-0.075,-0.345
'15:12.039',-0.080,-0.385
'15:12.042',-0.080,-0.430
'15:12.044',-0.080,-0.445
'15:12.047',-0.090,-0.460
'15:12.050',-0.090,-0.445
'15:12.053',-0.090,-0.440
'15:12.056',-0.090,-0.440
'15:12.058',-0.100,-0.450
'15:12.061',-0.090,-0.445
'15:12.064',-0.080,-0.450
'15:12.067',-0.075,-0.435
'15:12.069',-0.090,-0.430
'15:12.072',-0.095,-0.435
'15:12.075',-0.110,-0.440
'15:12.078',-0.120,-0.425
'15:12.081',-0.130,-0.405
'15:12.083',-0.125,-0.410
'15:12.086',-0.120,-0.405
'15:12.089',-0.105,-0.400
'15:12.092',-0.105,-0.395
'15:12.094',-0.105,-0.370
'15:12.097',-0.100,-0.370
'15:12.100',-0.095,-0.345
'15:12.103',-0.100,-0.340
'15:12.106',-0.110,-0.375
'15:12.108',-0.125,-0.395
'15:12.111',-0.125,-0.405
'15:12.114',-0.125,-0.410
'15:12.117',-0.130,-0.390
'15:12.119',-0.130,-0.375
'15:12.122',-0.115,-0.370
'15:12.125',-0.115,-0.380
'15:12.128',-0.105,-0.400
'15:12.131',-0.115,-0.405
'15:12.133',-0.110,-0.410
'15:12.136',-0.110,-0.405
'15:12.139',-0.120,-0.395
'15:12.142',-0.110,-0.395
'15:12.144',-0.115,-0.375
'15:12.147',-0.125,-0.390
'15:12.150',-0.135,-0.390
'15:12.153',-0.130,-0.390
'15:12.156',-0.115,-0.410
'15:12.158',-0.110,-0.410
'15:12.161',-0.105,-0.425
'15:12.164',-0.100,-0.430
'15:12.167',-0.105,-0.425
'15:12.169',-0.115,-0.440
'15:12.172',-0.125,-0.470
'15:12.175',-0.135,-0.465
'15:12.178',-0.125,-0.460
'15:12.181',-0.125,-0.445
'15:12.183',-0.110,-0.425
'15:12.186',-0.095,-0.400
'15:12.189',-0.080,-0.385
'15:12.192',-0.070,-0.390
'15:12.194',-0.065,-0.400
'15:12.197',-0.070,-0.425
'15:12.200',-0.060,-0.445
'15:12.203',-0.065,-0.440
'15:12.206',-0.060,-0.435
'15:12.208',-0.065,-0.430
'15:12.211',-0.055,-0.390
'15:12.214',-0.060,-0.400
'15:12.217',-0.050,-0.400
'15:12.219',-0.060,-0.420
'15:12.222',-0.060,-0.445
'15:12.225',-0.070,-0.475
'15:12.228',-0.075,-0.475
'15:12.231',-0.080,-0.445
'15:12.233',-0.080,-0.440
'15:12.236',-0.085,-0.420
'15:12.239',-0.085,-0.405
'15:12.242',-0.090,-0.415
'15:12.244',-0.105,-0.435
'15:12.247',-0.115,-0.430
'15:12.250',-0.135,-0.445
'15:12.253',-0.125,-0.440
'15:12.256',-0.130,-0.430
'15:12.258',-0.125,-0.415
'15:12.261',-0.120,-0.415
'15:12.264',-0.140,-0.420
'15:12.267',-0.165,-0.420
'15:12.269',-0.175,-0.415
'15:12.272',-0.190,-0.405
'15:12.275',-0.190,-0.410
'15:12.278',-0.190,-0.420
'15:12.281',-0.180,-0.430
'15:12.283',-0.165,-0.430
'15:12.286',-0.175,-0.435
'15:12.289',-0.170,-0.440
'15:12.292',-0.175,-0.430
'15:12.294',-0.165,-0.435
'15:12.297',-0.160,-0.420
'15:12.300',-0.155,-0.435
'15:12.303',-0.150,-0.445
'15:12.306',-0.150,-0.460
'15:12.308',-0.165,-0.460
'15:12.311',-0.165,-0.445
'15:12.314',-0.185,-0.455
'15:12.317',-0.205,-0.455
'15:12.319',-0.235,-0.465
'15:12.322',-0.265,-0.480
'15:12.325',-0.260,-0.475
'15:12.328',-0.215,-0.460
'15:12.331',-0.145,-0.460
'15:12.333',-0.025,-0.475
'15:12.336',0.135,-0.480
'15:12.339',0.325,-0.515
'15:12.342',0.550,-0.545
'15:12.344',0.775,-0.570
'15:12.347',0.990,-0.600
'15:12.350',1.175,-0.605
'15:12.353',1.245,-0.585
'15:12.356',1.170,-0.520
'15:12.358',0.935,-0.475
'15:12.361',0.605,-0.410
'15:12.364',0.255,-0.390
'15:12.367',-0.035,-0.375
'15:12.369',-0.220,-0.370
'15:12.372',-0.275,-0.405
'15:12.375',-0.235,-0.435
'15:12.378',-0.165,-0.460
'15:12.381',-0.080,-0.500
'15:12.383',-0.045,-0.520
'15:12.386',-0.035,-0.550
'15:12.389',-0.035,-0.535
'15:12.392',-0.055,-0.530
'15:12.394',-0.075,-0.515
'15:12.397',-0.100,-0.500
'15:12.400',-0.110,-0.500
'15:12.403',-0.125,-0.475
'15:12.406',-0.135,-0.490
'15:12.408',-0.140,-0.485
'15:12.411',-0.155,-0.490
'15:12.414',-0.165,-0.480
'15:12.417',-0.155,-0.470
'15:12.419',-0.145,-0.490
'15:12.422',-0.145,-0.495
'15:12.425',-0.135,-0.510
'15:12.428',-0.135,-0.505
'15:12.431',-0.140,-0.500
'15:12.433',-0.135,-0.500
'15:12.436',-0.130,-0.495
'15:12.439',-0.135,-0.490
'15:12.442',-0.150,-0.500
'15:12.444',-0.160,-0.510
'15:12.447',-0.160,-0.505
'15:12.450',-0.165,-0.495
'15:12.453',-0.155,-0.500
'15:12.456',-0.145,-0.480
'15:12.458',-0.145,-0.480
'15:12.461',-0.145,-0.490
'15:12.464',-0.130,-0.505
'15:12.467',-0.130,-0.510
'15:12.469',-0.135,-0.515
'15:12.472',-0.145,-0.525
'15:12.475',-0.150,-0.530
'15:12.478',-0.155,-0.530
'15:12.481',-0.150,-0.530
'15:12.483',-0.140,-0.520
'15:12.486',-0.125,-0.520
'15:12.489',-0.120,-0.520
'15:12.492',-0.120,-0.505
'15:12.494',-0.130,-0.505
'15:12.497',-0.120,-0.505
'15:12.500',-0.115,-0.500
'15:12.503',-0.110,-0.500
'15:12.506',-0.120,-0.500
'15:12.508',-0.125,-0.505
'15:12.511',-0.135,-0.520
'15:12.514',-0.130,-0.540
'15:12.517',-0.140,-0.545
'15:12.519',-0.140,-0.555
'15:12.522',-0.140,-0.545
'15:12.525',-0.135,-0.535
'15:12.528',-0.125,-0.520
'15:12.531',-0.125,-0.515
'15:12.533',-0.115,-0.515
'15:12.536',-0.115,-0.540
'15:12.539',-0.115,-0.570
'15:12.542',-0.115,-0.590
'15:12.544',-0.105,-0.605
'15:12.547',-0.105,-0.615
'15:12.550',-0.115,-0.600
'15:12.553',-0.105,-0.580
'15:12.556',-0.110,-0.575
'15:12.558',-0.115,-0.570
'15:12.561',-0.110,-0.570
'15:12.564',-0.110,-0.590
'15:12.567',-0.100,-0.590
'15:12.569',-0.095,-0.585
'15:12.572',-0.100,-0.585
'15:12.575',-0.110,-0.610
'15:12.578',-0.105,-0.600
'15:12.581',-0.110,-0.605
'15:12.583',-0.105,-0.615
'15:12.586',-0.115,-0.600
'15:12.589',-0.105,-0.600
'15:12.592',-0.095,-0.605
'15:12.594',-0.080,-0.590
'15:12.597',-0.075,-0.580
'15:12.600',-0.065,-0.595
'15:12.603',-0.065,-0.585
'15:12.606',-0.070,-0.590
'15:12.608',-0.075,-0.595
'15:12.611',-0.065,-0.600
'15:12.614',-0.070,-0.625
'15:12.617',-0.060,-0.625
'15:12.619',-0.045,-0.625
'15:12.622',-0.035,-0.620
'15:12.625',-0.020,-0.630
'15:12.628',-0.015,-0.605
'15:12.631',0.000,-0.600
'15:12.633',0.005,-0.595
'15:12.636',0.000,-0.595
'15:12.639',-0.015,-0.610
'15:12.642',-0.035,-0.625
'15:12.644',-0.050,-0.625
'15:12.647',-0.055,-0.630
'15:12.650',-0.060,-0.600
'15:12.653',-0.055,-0.600
'15:12.656',-0.050,-0.595
'15:12.658',-0.045,-0.605
'15:12.661',-0.050,-0.595
'15:12.664',-0.050,-0.605
'15:12.667',-0.050,-0.620
'15:12.669',-0.060,-0.615
'15:12.672',-0.070,-0.625
'15:12.675',-0.085,-0.625
'15:12.678',-0.095,-0.610
'15:12.681',-0.110,-0.610
'15:12.683',-0.120,-0.610
'15:12.686',-0.125,-0.590
'15:12.689',-0.125,-0.585
'15:12.692',-0.115,-0.580
'15:12.694',-0.120,-0.575
'15:12.697',-0.125,-0.575
'15:12.700',-0.115,-0.570
'15:12.703',-0.125,-0.565
'15:12.706',-0.135,-0.560
'15:12.708',-0.145,-0.580
'15:12.711',-0.150,-0.560
'15:12.714',-0.160,-0.570
'15:12.717',-0.170,-0.565
'15:12.719',-0.170,-0.560
'15:12.722',-0.170,-0.545
'15:12.725',-0.175,-0.540
'15:12.728',-0.175,-0.570
'15:12.731',-0.170,-0.575
'15:12.733',-0.170,-0.575
'15:12.736',-0.155,-0.565
'15:12.739',-0.165,-0.560
'15:12.742',-0.165,-0.565
'15:12.744',-0.170,-0.565
'15:12.747',-0.180,-0.570
'15:12.750',-0.180,-0.570
'15:12.753',-0.180,-0.555
'15:12.756',-0.185,-0.565
'15:12.758',-0.190,-0.550
'15:12.761',-0.185,-0.555
'15:12.764',-0.170,-0.545
'15:12.767',-0.180,-0.540
'15:12.769',-0.175,-0.535
'15:12.772',-0.190,-0.550
'15:12.775',-0.205,-0.555
'15:12.778',-0.210,-0.570
'15:12.781',-0.220,-0.555
'15:12.783',-0.225,-0.555
'15:12.786',-0.230,-0.555
'15:12.789',-0.215,-0.545
'15:12.792',-0.205,-0.550
'15:12.794',-0.195,-0.535
'15:12.797',-0.195,-0.540
'15:12.800',-0.180,-0.540
'15:12.803',-0.190,-0.535
'15:12.806',-0.200,-0.550
'15:12.808',-0.210,-0.550
'15:12.811',-0.230,-0.555
'15:12.814',-0.220,-0.545
'15:12.817',-0.235,-0.545
'15:12.819',-0.220,-0.535
'15:12.822',-0.215,-0.530
'15:12.825',-0.210,-0.540
'15:12.828',-0.210,-0.540
'15:12.831',-0.200,-0.535
'15:12.833',-0.205,-0.540
'15:12.836',-0.200,-0.540
