'Elapsed time','MLII','V1'
'hh:mm:ss.mmm','mV','mV'
'24:00.000',-0.270,-0.595
'24:00.003',-0.290,-0.580
'24:00.006',-0.285,-0.570
'24:00.008',-0.295,-0.565
'24:00.011',-0.300,-0.545
'24:00.014',-0.305,-0.545
'24:00.017',-0.305,-0.535
'24:00.019',-0.310,-0.545
'24:00.022',-0.315,-0.530
'24:00.025',-0.315,-0.540
'24:00.028',-0.335,-0.540
'24:00.031',-0.355,-0.545
'24:00.033',-0.365,-0.545
'24:00.036',-0.365,-0.535
'24:00.039',-0.375,-0.520
'24:00.042',-0.370,-0.510
'24:00.044',-0.355,-0.505
'24:00.047',-0.365,-0.505
'24:00.050',-0.370,-0.490
'24:00.053',-0.375,-0.495
'24:00.056',-0.370,-0.500
'24:00.058',-0.365,-0.510
'24:00.061',-0.380,-0.515
'24:00.064',-0.390,-0.515
'24:00.067',-0.385,-0.520
'24:00.069',-0.390,-0.515
'24:00.072',-0.390,-0.510
'24:00.075',-0.385,-0.510
'24:00.078',-0.390,-0.495
'24:00.081',-0.380,-0.480
'24:00.083',-0.375,-0.480
'24:00.086',-0.375,-0.485
'24:00.089',-0.375,-0.490
'24:00.092',-0.385,-0.510
'24:00.094',-0.395,-0.505
'24:00.097',-0.395,-0.510
'24:00.100',-0.405,-0.520
'24:00.103',-0.405,-0.510
'24:00.106',-0.405,-0.505
'24:00.108',-0.400,-0.500
'24:00.111',-0.390,-0.490
'24:00.114',-0.395,-0.485
'24:00.117',-0.385,-0.485
'24:00.119',-0.380,-0.490
'24:00.122',-0.380,-0.495
'24:00.125',-0.395,-0.495
'24:00.128',-0.400,-0.500
'24:00.131',-0.410,-0.500
'24:00.133',-0.415,-0.520
'24:00.136',-0.415,-0.510
'24:00.139',-0.420,-0.510
'24:00.142',-0.405,-0.490
'24:00.144',-0.405,-0.480
'24:00.147',-0.395,-0.485
'24:00.150',-0.390,-0.475
'24:00.153',-0.400,-0.490
'24:00.156',-0.400,-0.475
'24:00.158',-0.385,-0.490
'24:00.161',-0.390,-0.510
'24:00.164',-0.400,-0.510
'24:00.167',-0.405,-0.505
'24:00.169',-0.410,-0.505
'24:00.172',-0.415,-0.495
'24:00.175',-0.415,-0.485
'24:00.178',-0.395,-0.475
'24:00.181',-0.395,-0.475
'24:00.183',-0.390,-0.465
'24:00.186',-0.385,-0.470
'24:00.189',-0.385,-0.475
'24:00.192',-0.390,-0.470
'24:00.194',-0.400,-0.495
'24:00.197',-0.400,-0.495
'24:00.200',-0.400,-0.495
'24:00.203',-0.400,-0.490
'24:00.206',-0.410,-0.500
'24:00.208',-0.400,-0.475
'24:00.211',-0.395,-0.470
'24:00.214',-0.385,-0.470
'24:00.217',-0.385,-0.455
'24:00.219',-0.385,-0.470
'24:00.222',-0.385,-0.465
'24:00.225',-0.390,-0.475
'24:00.228',-0.385,-0.485
'24:00.231',-0.400,-0.495
'24:00.233',-0.395,-0.495
'24:00.236',-0.400,-0.490
'24:00.239',-0.400,-0.495
'24:00.242',-0.385,-0.495
'24:00.244',-0.370,-0.470
'24:00.247',-0.350,-0.465
'24:00.250',-0.335,-0.470
'24:00.253',-0.315,-0.470
'24:00.256',-0.315,-0.460
'24:00.258',-0.310,-0.455
'24:00.261',-0.325,-0.455
'24:00.264',-0.335,-0.470
'24:00.267',-0.335,-0.470
'24:00.269',-0.325,-0.470
'24:00.272',-0.320,-0.465
'24:00.275',-0.300,-0.460
'24:00.278',-0.285,-0.460
'24:00.281',-0.280,-0.475
'24:00.283',-0.280,-0.475
'24:00.286',-0.300,-0.485
'24:00.289',-0.315,-0.495
'24:00.292',-0.335,-0.505
'24:00.294',-0.340,-0.515
'24:00.297',-0.345,-0.515
'24:00.300',-0.340,-0.515
'24:00.303',-0.345,-0.510
'24:00.306',-0.365,-0.500
'24:00.308',-0.365,-0.495
'24:00.311',-0.355,-0.480
'24:00.314',-0.345,-0.480
'24:00.317',-0.350,-0.480
'24:00.319',-0.355,-0.485
'24:00.322',-0.360,-0.475
'24:00.325',-0.375,-0.475
'24:00.328',-0.385,-0.485
'24:00.331',-0.390,-0.480
'24:00.333',-0.410,-0.480
'24:00.336',-0.415,-0.470
'24:00.339',-0.410,-0.475
'24:00.342',-0.400,-0.470
'24:00.344',-0.390,-0.460
'24:00.347',-0.385,-0.460
'24:00.350',-0.370,-0.450
'24:00.353',-0.375,-0.465
'24:00.356',-0.375,-0.455
'24:00.358',-0.385,-0.470
'24:00.361',-0.385,-0.470
'24:00.364',-0.395,-0.485
'24:00.367',-0.395,-0.485
'24:00.369',-0.390,-0.490
'24:00.372',-0.395,-0.475
'24:00.375',-0.395,-0.470
'24:00.378',-0.410,-0.465
'24:00.381',-0.420,-0.460
'24:00.383',-0.430,-0.445
'24:00.386',-0.425,-0.450
'24:00.389',-0.395,-0.440
'24:00.392',-0.310,-0.435
'24:00.394',-0.200,-0.440
'24:00.397',-0.060,-0.475
'24:00.400',0.130,-0.485
'24:00.403',0.345,-0.510
'24:00.406',0.565,-0.560
'24:00.408',0.765,-0.605
'24:00.411',0.875,-0.640
'24:00.414',0.865,-0.645
'24:00.417',0.705,-0.645
'24:00.419',0.430,-0.640
'24:00.422',0.100,-0.595
'24:00.425',-0.200,-0.550
'24:00.428',-0.415,-0.505
'24:00.431',-0.520,-0.465
'24:00.433',-0.500,-0.435
'24:00.436',-0.440,-0.405
'24:00.439',-0.360,-0.415
'24:00.442',-0.305,-0.445
'24:00.444',-0.270,-0.475
'24:00.447',-0.270,-0.505
'24:00.450',-0.260,-0.530
'24:00.453',-0.275,-0.530
'24:00.456',-0.285,-0.515
'24:00.458',-0.310,-0.515
'24:00.461',-0.330,-0.510
'24:00.464',-0.345,-0.490
'24:00.467',-0.350,-0.500
'24:00.469',-0.360,-0.500
'24:00.472',-0.355,-0.495
'24:00.475',-0.350,-0.480
'24:00.478',-0.345,-0.465
'24:00.481',-0.340,-0.460
'24:00.483',-0.330,-0.455
'24:00.486',-0.340,-0.460
'24:00.489',-0.335,-0.455
'24:00.492',-0.330,-0.455
'24:00.494',-0.345,-0.470
'24:00.497',-0.350,-0.475
'24:00.500',-0.355,-0.480
'24:00.503',-0.365,-0.470
'24:00.506',-0.350,-0.475
'24:00.508',-0.350,-0.465
'24:00.511',-0.340,-0.455
'24:00.514',-0.340,-0.465
'24:00.517',-0.330,-0.445
'24:00.519',-0.330,-0.450
'24:00.522',-0.325,-0.455
'24:00.525',-0.325,-0.460
'24:00.528',-0.330,-0.465
'24:00.531',-0.325,-0.480
'24:00.533',-0.335,-0.470
'24:00.536',-0.330,-0.475
'24:00.539',-0.335,-0.475
'24:00.542',-0.330,-0.470
'24:00.544',-0.325,-0.470
'24:00.547',-0.310,-0.460
'24:00.550',-0.310,-0.450
'24:00.553',-0.310,-0.455
'24:00.556',-0.305,-0.470
'24:00.558',-0.310,-0.470
'24:00.561',-0.310,-0.475
'24:00.564',-0.325,-0.485
'24:00.567',-0.330,-0.490
'24:00.569',-0.320,-0.490
'24:00.572',-0.325,-0.490
'24:00.575',-0.315,-0.475
'24:00.578',-0.310,-0.470
'24:00.581',-0.300,-0.465
'24:00.583',-0.290,-0.465
'24:00.586',-0.295,-0.465
'24:00.589',-0.285,-0.470
'24:00.592',-0.285,-0.490
'24:00.594',-0.290,-0.490
'24:00.597',-0.295,-0.510
'24:00.600',-0.300,-0.510
'24:00.603',-0.310,-0.500
'24:00.606',-0.315,-0.490
'24:00.608',-0.305,-0.490
'24:00.611',-0.295,-0.485
'24:00.614',-0.285,-0.480
'24:00.617',-0.280,-0.470
'24:00.619',-0.280,-0.485
'24:00.622',-0.280,-0.480
'24:00.625',-0.270,-0.490
'24:00.628',-0.280,-0.505
'24:00.631',-0.285,-0.510
'24:00.633',-0.290,-0.520
'24:00.636',-0.285,-0.510
'24:00.639',-0.295,-0.510
'24:00.642',-0.295,-0.500
'24:00.644',-0.280,-0.500
'24:00.647',-0.285,-0.510
'24:00.650',-0.270,-0.500
'24:00.653',-0.270,-0.505
'24:00.656',-0.275,-0.495
'24:00.658',-0.270,-0.515
'24:00.661',-0.275,-0.525
'24:00.664',-0.285,-0.520
'24:00.667',-0.280,-0.540
'24:00.669',-0.285,-0.530
'24:00.672',-0.280,-0.525
'24:00.675',-0.275,-0.530
'24:00.678',-0.270,-0.525
'24:00.681',-0.265,-0.520
'24:00.683',-0.255,-0.520
'24:00.686',-0.250,-0.515
'24:00.689',-0.240,-0.515
'24:00.692',-0.245,-0.530
'24:00.694',-0.230,-0.545
'24:00.697',-0.225,-0.550
'24:00.700',-0.225,-0.545
'24:00.703',-0.225,-0.540
'24:00.706',-0.220,-0.550
'24:00.708',-0.200,-0.540
'24:00.711',-0.190,-0.530
'24:00.714',-0.190,-0.525
'24:00.717',-0.180,-0.510
'24:00.719',-0.175,-0.520
'24:00.722',-0.160,-0.530
'24:00.725',-0.175,-0.535
'24:00.728',-0.175,-0.540
'24:00.731',-0.195,-0.540
'24:00.733',-0.205,-0.550
'24:00.736',-0.210,-0.535
'24:00.739',-0.225,-0.530
'24:00.742',-0.210,-0.530
'24:00.744',-0.210,-0.520
'24:00.747',-0.220,-0.505
'24:00.750',-0.215,-0.500
'24:00.753',-0.215,-0.505
'24:00.756',-0.225,-0.500
'24:00.758',-0.235,-0.500
'24:00.761',-0.245,-0.505
'24:00.764',-0.255,-0.510
'24:00.767',-0.265,-0.500
'24:00.769',-0.275,-0.500
'24:00.772',-0.290,-0.495
'24:00.775',-0.285,-0.490
'24:00.778',-0.280,-0.470
'24:00.781',-0.285,-0.470
'24:00.783',-0.285,-0.455
'24:00.786',-0.275,-0.460
'24:00.789',-0.285,-0.465
'24:00.792',-0.290,-0.470
'24:00.794',-0.295,-0.470
'24:00.797',-0.310,-0.470
'24:00.800',-0.305,-0.475
'24:00.803',-0.310,-0.470
'24:00.806',-0.325,-0.475
'24:00.808',-0.305,-0.470
'24:00.811',-0.310,-0.455
'24:00.814',-0.310,-0.455
'24:00.817',-0.310,-0.450
'24:00.819',-0.295,-0.445
'24:00.822',-0.295,-0.445
'24:00.825',-0.300,-0.460
'24:00.828',-0.310,-0.460
'24:00.831',-0.310,-0.465
'24:00.833',-0.325,-0.470
'24:00.836',-0.330,-0.470
'24:00.839',-0.335,-0.460
'24:00.842',-0.335,-0.460
'24:00.844',-0.330,-0.450
'24:00.847',-0.320,-0.440
'24:00.850',-0.315,-0.440
'24:00.853',-0.305,-0.445
'24:00.856',-0.300,-0.455
'24:00.858',-0.320,-0.445
'24:00.861',-0.320,-0.460
'24:00.864',-0.335,-0.475
'24:00.867',-0.330,-0.470
'24:00.869',-0.340,-0.460
'24:00.872',-0.335,-0.460
'24:00.875',-0.340,-0.460
'24:00.878',-0.330,-0.445
'24:00.881',-0.335,-0.435
'24:00.883',-0.320,-0.440
'24:00.886',-0.330,-0.435
'24:00.889',-0.320,-0.450
'24:00.892',-0.330,-0.455
'24:00.894',-0.345,-0.460
'24:00.897',-0.345,-0.470
'24:00.900',-0.350,-0.470
'24:00.903',-0.350,-0.475
'24:00.906',-0.355,-0.460
'24:00.908',-0.350,-0.455
'24:00.911',-0.345,-0.435
'24:00.914',-0.335,-0.440
'24:00.917',-0.345,-0.440
'24:00.919',-0.335,-0.445
'24:00.922',-0.335,-0.435
'24:00.925',-0.345,-0.445
'24:00.928',-0.355,-0.460
'24:00.931',-0.355,-0.465
'24:00.933',-0.365,-0.455
'24:00.936',-0.360,-0.465
'24:00.939',-0.370,-0.465
'24:00.942',-0.365,-0.460
'24:00.944',-0.360,-0.455
'24:00.947',-0.355,-0.440
'24:00.950',-0.355,-0.435
'24:00.953',-0.340,-0.435
'24:00.956',-0.345,-0.435
'24:00.958',-0.340,-0.450
'24:00.961',-0.360,-0.450
'24:00.964',-0.360,-0.455
'24:00.967',-0.370,-0.450
'24:00.969',-0.365,-0.460
'24:00.972',-0.365,-0.445
'24:00.975',-0.355,-0.455
'24:00.978',-0.340,-0.450
'24:00.981',-0.320,-0.440
'24:00.983',-0.310,-0.430
'24:00.986',-0.300,-0.430
'24:00.989',-0.290,-0.425
'24:00.992',-0.300,-0.435
'24:00.994',-0.285,-0.425
'24:00.997',-0.300,-0.445
'24:01.000',-0.300,-0.430
'24:01.003',-0.305,-0.425
'24:01.006',-0.300,-0.430
'24:01.008',-0.280,-0.415
'24:01.011',-0.265,-0.415
'24:01.014',-0.245,-0.410
'24:01.017',-0.230,-0.415
'24:01.019',-0.235,-0.425
'24:01.022',-0.250,-0.440
'24:01.025',-0.270,-0.460
'24:01.028',-0.300,-0.485
'24:01.031',-0.300,-0.485
'24:01.033',-0.310,-0.490
'24:01.036',-0.320,-0.480
'24:01.039',-0.320,-0.475
'24:01.042',-0.325,-0.460
'24:01.044',-0.325,-0.450
'24:01.047',-0.320,-0.445
'24:01.050',-0.320,-0.435
'24:01.053',-0.325,-0.450
'24:01.056',-0.330,-0.445
'24:01.058',-0.335,-0.450
'24:01.061',-0.345,-0.450
'24:01.064',-0.360,-0.465
'24:01.067',-0.385,-0.455
'24:01.069',-0.380,-0.450
'24:01.072',-0.395,-0.440
'24:01.075',-0.375,-0.430
'24:01.078',-0.380,-0.415
'24:01.081',-0.370,-0.415
'24:01.083',-0.360,-0.420
'24:01.086',-0.360,-0.420
'24:01.089',-0.350,-0.425
'24:01.092',-0.360,-0.435
'24:01.094',-0.360,-0.435
'24:01.097',-0.370,-0.445
'24:01.100',-0.385,-0.450
'24:01.103',-0.380,-0.445
'24:01.106',-0.380,-0.425
'24:01.108',-0.375,-0.440
'24:01.111',-0.365,-0.425
'24:01.114',-0.365,-0.425
'24:01.117',-0.370,-0.415
'24:01.119',-0.370,-0.420
'24:01.122',-0.380,-0.425
'24:01.125',-0.400,-0.425
'24:01.128',-0.440,-0.425
'24:01.131',-0.445,-0.435
'24:01.133',-0.430,-0.435
'24:01.136',-0.365,-0.425
'24:01.139',-0.280,-0.410
'24:01.142',-0.140,-0.415
'24:01.144',0.045,-0.430
'24:01.147',0.250,-0.440
'24:01.150',0.490,-0.485
'24:01.153',0.715,-0.545
'24:01.156',0.870,-0.590
'24:01.158',0.910,-0.625
'24:01.161',0.790,-0.650
'24:01.164',0.515,-0.645
'24:01.167',0.175,-0.615
'24:01.169',-0.160,-0.570
'24:01.172',-0.395,-0.500
'24:01.175',-0.500,-0.435
'24:01.178',-0.480,-0.380
'24:01.181',-0.405,-0.370
'24:01.183',-0.310,-0.375
'24:01.186',-0.260,-0.420
'24:01.189',-0.220,-0.465
'24:01.192',-0.220,-0.490
'24:01.194',-0.240,-0.510
'24:01.197',-0.260,-0.530
'24:01.200',-0.300,-0.520
'24:01.203',-0.310,-0.505
'24:01.206',-0.330,-0.485
'24:01.208',-0.330,-0.460
'24:01.211',-0.325,-0.450
'24:01.214',-0.325,-0.430
'24:01.217',-0.315,-0.435
'24:01.219',-0.300,-0.440
'24:01.222',-0.310,-0.445
'24:01.225',-0.315,-0.455
'24:01.228',-0.330,-0.445
'24:01.231',-0.330,-0.460
'24:01.233',-0.335,-0.445
'24:01.236',-0.335,-0.460
'24:01.239',-0.335,-0.450
'24:01.242',-0.325,-0.445
'24:01.244',-0.315,-0.430
'24:01.247',-0.325,-0.430
'24:01.250',-0.320,-0.420
'24:01.253',-0.325,-0.420
'24:01.256',-0.320,-0.420
'24:01.258',-0.320,-0.430
'24:01.261',-0.325,-0.445
'24:01.264',-0.325,-0.445
'24:01.267',-0.330,-0.460
'24:01.269',-0.320,-0.450
'24:01.272',-0.325,-0.445
'24:01.275',-0.315,-0.445
'24:01.278',-0.310,-0.440
'24:01.281',-0.300,-0.435
'24:01.283',-0.290,-0.430
'24:01.286',-0.300,-0.440
'24:01.289',-0.285,-0.435
'24:01.292',-0.290,-0.450
'24:01.294',-0.300,-0.440
'24:01.297',-0.295,-0.455
'24:01.300',-0.300,-0.460
'24:01.303',-0.305,-0.460
'24:01.306',-0.310,-0.455
'24:01.308',-0.300,-0.455
'24:01.311',-0.290,-0.435
'24:01.314',-0.285,-0.440
'24:01.317',-0.270,-0.430
'24:01.319',-0.260,-0.445
'24:01.322',-0.270,-0.440
'24:01.325',-0.265,-0.455
'24:01.328',-0.265,-0.465
'24:01.331',-0.275,-0.465
'24:01.333',-0.280,-0.470
'24:01.336',-0.285,-0.475
'24:01.339',-0.290,-0.475
'24:01.342',-0.275,-0.470
'24:01.344',-0.275,-0.455
'24:01.347',-0.275,-0.450
'24:01.350',-0.270,-0.445
'24:01.353',-0.260,-0.460
'24:01.356',-0.260,-0.455
'24:01.358',-0.270,-0.465
'24:01.361',-0.265,-0.485
'24:01.364',-0.275,-0.485
'24:01.367',-0.290,-0.495
'24:01.369',-0.275,-0.480
'24:01.372',-0.280,-0.480
'24:01.375',-0.275,-0.480
'24:01.378',-0.265,-0.485
'24:01.381',-0.260,-0.475
'24:01.383',-0.250,-0.480
'24:01.386',-0.250,-0.470
'24:01.389',-0.255,-0.485
'24:01.392',-0.250,-0.490
'24:01.394',-0.260,-0.500
'24:01.397',-0.270,-0.515
'24:01.400',-0.250,-0.510
'24:01.403',-0.265,-0.500
'24:01.406',-0.270,-0.515
'24:01.408',-0.265,-0.495
'24:01.411',-0.265,-0.495
'24:01.414',-0.265,-0.490
'24:01.417',-0.255,-0.485
'24:01.419',-0.245,-0.485
'24:01.422',-0.245,-0.490
'24:01.425',-0.250,-0.490
'24:01.428',-0.245,-0.510
'24:01.431',-0.240,-0.520
'24:01.433',-0.250,-0.520
'24:01.436',-0.240,-0.520
'24:01.439',-0.230,-0.525
'24:01.442',-0.220,-0.510
'24:01.444',-0.195,-0.515
'24:01.447',-0.195,-0.510
'24:01.450',-0.185,-0.500
'24:01.453',-0.185,-0.500
'24:01.456',-0.170,-0.510
'24:01.458',-0.175,-0.525
'24:01.461',-0.180,-0.530
'24:01.464',-0.175,-0.525
'24:01.467',-0.180,-0.535
'24:01.469',-0.175,-0.540
'24:01.472',-0.190,-0.520
'24:01.475',-0.190,-0.510
'24:01.478',-0.190,-0.510
'24:01.481',-0.190,-0.500
'24:01.483',-0.180,-0.495
'24:01.486',-0.195,-0.500
'24:01.489',-0.205,-0.495
'24:01.492',-0.220,-0.500
'24:01.494',-0.220,-0.500
'24:01.497',-0.240,-0.505
'24:01.500',-0.260,-0.490
'24:01.503',-0.250,-0.500
'24:01.506',-0.270,-0.495
'24:01.508',-0.280,-0.475
'24:01.511',-0.270,-0.470
'24:01.514',-0.270,-0.460
'24:01.517',-0.275,-0.455
'24:01.519',-0.270,-0.445
'24:01.522',-0.265,-0.445
'24:01.525',-0.270,-0.450
'24:01.528',-0.285,-0.450
'24:01.531',-0.300,-0.465
'24:01.533',-0.300,-0.470
'24:01.536',-0.300,-0.460
'24:01.539',-0.305,-0.460
'24:01.542',-0.300,-0.450
'24:01.544',-0.300,-0.435
'24:01.547',-0.290,-0.435
'24:01.550',-0.300,-0.415
'24:01.553',-0.305,-0.425
'24:01.556',-0.300,-0.435
'24:01.558',-0.295,-0.430
'24:01.561',-0.320,-0.440
'24:01.564',-0.315,-0.445
'24:01.567',-0.315,-0.455
'24:01.569',-0.315,-0.460
'24:01.572',-0.320,-0.435
'24:01.575',-0.320,-0.440
'24:01.578',-0.310,-0.430
'24:01.581',-0.300,-0.425
'24:01.583',-0.300,-0.415
'24:01.586',-0.305,-0.420
'24:01.589',-0.300,-0.415
'24:01.592',-0.305,-0.435
'24:01.594',-0.320,-0.440
'24:01.597',-0.330,-0.430
'24:01.600',-0.330,-0.440
'24:01.603',-0.340,-0.450
'24:01.606',-0.340,-0.440
'24:01.608',-0.345,-0.435
'24:01.611',-0.335,-0.430
'24:01.614',-0.340,-0.420
'24:01.617',-0.320,-0.415
'24:01.619',-0.325,-0.420
'24:01.622',-0.320,-0.420
'24:01.625',-0.320,-0.425
'24:01.628',-0.325,-0.430
'24:01.631',-0.330,-0.440
'24:01.633',-0.335,-0.440
'24:01.636',-0.355,-0.440
'24:01.639',-0.360,-0.440
'24:01.642',-0.355,-0.435
'24:01.644',-0.345,-0.430
'24:01.647',-0.340,-0.410
'24:01.650',-0.330,-0.415
'24:01.653',-0.330,-0.425
'24:01.656',-0.320,-0.430
'24:01.658',-0.335,-0.435
'24:01.661',-0.335,-0.430
'24:01.664',-0.345,-0.440
'24:01.667',-0.345,-0.455
'24:01.669',-0.350,-0.455
'24:01.672',-0.360,-0.455
'24:01.675',-0.355,-0.435
'24:01.678',-0.350,-0.425
'24:01.681',-0.355,-0.415
'24:01.683',-0.340,-0.410
'24:01.686',-0.340,-0.425
'24:01.689',-0.330,-0.425
'24:01.692',-0.340,-0.430
'24:01.694',-0.340,-0.440
'24:01.697',-0.345,-0.445
'24:01.700',-0.345,-0.435
'24:01.703',-0.355,-0.440
'24:01.706',-0.350,-0.445
'24:01.708',-0.340,-0.430
'24:01.711',-0.335,-0.425
'24:01.714',-0.330,-0.420
'24:01.717',-0.325,-0.415
'24:01.719',-0.320,-0.415
'24:01.722',-0.315,-0.425
'24:01.725',-0.300,-0.435
'24:01.728',-0.300,-0.435
'24:01.731',-0.285,-0.435
'24:01.733',-0.290,-0.440
'24:01.736',-0.280,-0.435
'24:01.739',-0.285,-0.425
'24:01.742',-0.280,-0.410
'24:01.744',-0.260,-0.390
'24:01.747',-0.260,-0.395
'24:01.750',-0.240,-0.390
'24:01.753',-0.225,-0.390
'24:01.756',-0.210,-0.405
'24:01.758',-0.205,-0.415
'24:01.761',-0.220,-0.440
'24:01.764',-0.245,-0.445
'24:01.767',-0.260,-0.475
'24:01.769',-0.285,-0.465
'24:01.772',-0.300,-0.470
'24:01.775',-0.295,-0.470
'24:01.778',-0.300,-0.455
'24:01.781',-0.280,-0.445
'24:01.783',-0.285,-0.435
'24:01.786',-0.285,-0.435
'24:01.789',-0.285,-0.445
'24:01.792',-0.290,-0.445
'24:01.794',-0.310,-0.460
'24:01.797',-0.320,-0.470
'24:01.800',-0.330,-0.465
'24:01.803',-0.345,-0.450
'24:01.806',-0.355,-0.445
'24:01.808',-0.360,-0.440
'24:01.811',-0.365,-0.435
'24:01.814',-0.350,-0.420
'24:01.817',-0.355,-0.415
'24:01.819',-0.345,-0.420
'24:01.822',-0.335,-0.415
'24:01.825',-0.355,-0.420
'24:01.828',-0.355,-0.420
'24:01.831',-0.350,-0.420
'24:01.833',-0.365,-0.430
'24:01.836',-0.360,-0.430
'24:01.839',-0.360,-0.420
'24:01.842',-0.350,-0.420
'24:01.844',-0.340,-0.420
'24:01.847',-0.340,-0.410
'24:01.850',-0.330,-0.410
'24:01.853',-0.340,-0.420
'24:01.856',-0.345,-0.415
'24:01.858',-0.370,-0.410
'24:01.861',-0.390,-0.430
'24:01.864',-0.395,-0.420
'24:01.867',-0.365,-0.420
'24:01.869',-0.285,-0.420
'24:01.872',-0.150,-0.420
'24:01.875',0.015,-0.415
'24:01.878',0.215,-0.435
'24:01.881',0.435,-0.465
'24:01.883',0.675,-0.525
'24:01.886',0.850,-0.570
'24:01.889',0.930,-0.620
'24:01.892',0.835,-0.650
'24:01.894',0.610,-0.650
'24:01.897',0.290,-0.630
'24:01.900',-0.035,-0.575
'24:01.903',-0.290,-0.530
'24:01.906',-0.450,-0.465
'24:01.908',-0.465,-0.405
'24:01.911',-0.415,-0.355
'24:01.914',-0.330,-0.350
'24:01.917',-0.245,-0.370
'24:01.919',-0.210,-0.415
'24:01.922',-0.210,-0.455
'24:01.925',-0.210,-0.485
'24:01.928',-0.225,-0.510
'24:01.931',-0.245,-0.505
'24:01.933',-0.270,-0.495
'24:01.936',-0.290,-0.490
'24:01.939',-0.315,-0.465
'24:01.942',-0.315,-0.455
'24:01.944',-0.305,-0.450
'24:01.947',-0.310,-0.430
'24:01.950',-0.310,-0.425
'24:01.953',-0.295,-0.430
'24:01.956',-0.290,-0.435
'24:01.958',-0.305,-0.430
'24:01.961',-0.310,-0.430
'24:01.964',-0.320,-0.440
'24:01.967',-0.330,-0.435
'24:01.969',-0.335,-0.440
'24:01.972',-0.335,-0.435
'24:01.975',-0.330,-0.430
'24:01.978',-0.325,-0.425
'24:01.981',-0.320,-0.420
'24:01.983',-0.315,-0.410
'24:01.986',-0.300,-0.415
'24:01.989',-0.295,-0.410
'24:01.992',-0.295,-0.420
'24:01.994',-0.300,-0.420
'24:01.997',-0.305,-0.435
'24:02.000',-0.305,-0.440
'24:02.003',-0.315,-0.450
'24:02.006',-0.310,-0.430
'24:02.008',-0.305,-0.435
'24:02.011',-0.300,-0.420
'24:02.014',-0.300,-0.425
'24:02.017',-0.285,-0.420
'24:02.019',-0.280,-0.415
'24:02.022',-0.280,-0.425
'24:02.025',-0.270,-0.435
'24:02.028',-0.280,-0.430
'24:02.031',-0.280,-0.440
'24:02.033',-0.275,-0.450
'24:02.036',-0.290,-0.445
'24:02.039',-0.290,-0.450
'24:02.042',-0.290,-0.445
'24:02.044',-0.275,-0.440
'24:02.047',-0.275,-0.425
'24:02.050',-0.255,-0.425
'24:02.053',-0.260,-0.425
'24:02.056',-0.260,-0.430
'24:02.058',-0.260,-0.445
'24:02.061',-0.265,-0.450
'24:02.064',-0.275,-0.460
'24:02.067',-0.265,-0.460
'24:02.069',-0.270,-0.450
'24:02.072',-0.275,-0.450
'24:02.075',-0.275,-0.455
'24:02.078',-0.270,-0.450
'24:02.081',-0.265,-0.440
'24:02.083',-0.250,-0.445
'24:02.086',-0.245,-0.450
'24:02.089',-0.245,-0.455
'24:02.092',-0.240,-0.460
'24:02.094',-0.255,-0.465
'24:02.097',-0.255,-0.475
'24:02.100',-0.265,-0.485
'24:02.103',-0.260,-0.485
'24:02.106',-0.270,-0.470
'24:02.108',-0.260,-0.470
'24:02.111',-0.255,-0.475
'24:02.114',-0.240,-0.475
'24:02.117',-0.235,-0.465
'24:02.119',-0.230,-0.455
'24:02.122',-0.235,-0.460
'24:02.125',-0.230,-0.470
'24:02.128',-0.240,-0.485
'24:02.131',-0.240,-0.500
'24:02.133',-0.240,-0.500
'24:02.136',-0.255,-0.505
'24:02.139',-0.245,-0.500
'24:02.142',-0.250,-0.485
'24:02.144',-0.245,-0.480
'24:02.147',-0.240,-0.480
'24:02.150',-0.225,-0.475
'24:02.153',-0.220,-0.470
'24:02.156',-0.225,-0.470
'24:02.158',-0.210,-0.480
'24:02.161',-0.210,-0.495
'24:02.164',-0.205,-0.505
'24:02.167',-0.205,-0.510
'24:02.169',-0.195,-0.505
'24:02.172',-0.185,-0.510
'24:02.175',-0.180,-0.510
'24:02.178',-0.165,-0.500
'24:02.181',-0.160,-0.495
'24:02.183',-0.150,-0.480
'24:02.186',-0.140,-0.500
'24:02.189',-0.140,-0.500
'24:02.192',-0.140,-0.500
'24:02.194',-0.140,-0.510
'24:02.197',-0.145,-0.510
'24:02.200',-0.150,-0.525
'24:02.203',-0.160,-0.520
'24:02.206',-0.170,-0.510
'24:02.208',-0.175,-0.500
'24:02.211',-0.165,-0.495
'24:02.214',-0.180,-0.480
'24:02.217',-0.175,-0.465
'24:02.219',-0.175,-0.480
'24:02.222',-0.190,-0.475
'24:02.225',-0.195,-0.480
'24:02.228',-0.200,-0.490
'24:02.231',-0.215,-0.480
'24:02.233',-0.225,-0.480
'24:02.236',-0.240,-0.470
'24:02.239',-0.250,-0.475
'24:02.242',-0.250,-0.460
'24:02.244',-0.245,-0.445
'24:02.247',-0.250,-0.435
'24:02.250',-0.250,-0.425
'24:02.253',-0.240,-0.435
'24:02.256',-0.245,-0.440
'24:02.258',-0.245,-0.435
'24:02.261',-0.255,-0.430
'24:02.264',-0.265,-0.445
'24:02.267',-0.270,-0.450
'24:02.269',-0.280,-0.450
'24:02.272',-0.290,-0.445
'24:02.275',-0.280,-0.440
'24:02.278',-0.275,-0.430
'24:02.281',-0.275,-0.420
'24:02.283',-0.275,-0.410
'24:02.286',-0.275,-0.410
'24:02.289',-0.270,-0.420
'24:02.292',-0.275,-0.415
'24:02.294',-0.280,-0.430
'24:02.297',-0.285,-0.440
'24:02.300',-0.295,-0.440
'24:02.303',-0.295,-0.440
'24:02.306',-0.305,-0.435
'24:02.308',-0.300,-0.430
'24:02.311',-0.305,-0.425
'24:02.314',-0.300,-0.410
'24:02.317',-0.290,-0.415
'24:02.319',-0.285,-0.410
'24:02.322',-0.290,-0.415
'24:02.325',-0.290,-0.425
'24:02.328',-0.300,-0.420
'24:02.331',-0.305,-0.440
'24:02.333',-0.315,-0.440
'24:02.336',-0.320,-0.435
'24:02.339',-0.325,-0.445
'24:02.342',-0.320,-0.430
'24:02.344',-0.315,-0.415
'24:02.347',-0.320,-0.425
'24:02.350',-0.300,-0.405
'24:02.353',-0.310,-0.410
'24:02.356',-0.305,-0.405
'24:02.358',-0.315,-0.420
'24:02.361',-0.320,-0.415
'24:02.364',-0.325,-0.435
'24:02.367',-0.340,-0.415
'24:02.369',-0.335,-0.425
'24:02.372',-0.345,-0.430
'24:02.375',-0.345,-0.425
'24:02.378',-0.330,-0.420
'24:02.381',-0.325,-0.415
'24:02.383',-0.325,-0.405
'24:02.386',-0.310,-0.410
'24:02.389',-0.315,-0.405
'24:02.392',-0.315,-0.420
'24:02.394',-0.320,-0.420
'24:02.397',-0.325,-0.430
'24:02.400',-0.330,-0.440
'24:02.403',-0.325,-0.435
'24:02.406',-0.335,-0.430
'24:02.408',-0.340,-0.430
'24:02.411',-0.325,-0.415
'24:02.414',-0.320,-0.415
'24:02.417',-0.315,-0.400
'24:02.419',-0.315,-0.410
'24:02.422',-0.320,-0.415
'24:02.425',-0.320,-0.420
'24:02.428',-0.315,-0.430
'24:02.431',-0.325,-0.430
'24:02.433',-0.330,-0.435
'24:02.436',-0.345,-0.440
'24:02.439',-0.335,-0.425
'24:02.442',-0.325,-0.430
'24:02.444',-0.325,-0.420
'24:02.447',-0.315,-0.415
'24:02.450',-0.310,-0.410
'24:02.453',-0.290,-0.410
'24:02.456',-0.280,-0.405
'24:02.458',-0.280,-0.410
'24:02.461',-0.280,-0.420
'24:02.464',-0.280,-0.420
'24:02.467',-0.290,-0.425
'24:02.469',-0.285,-0.415
'24:02.472',-0.285,-0.405
'24:02.475',-0.285,-0.405
'24:02.478',-0.265,-0.375
'24:02.481',-0.250,-0.385
'24:02.483',-0.230,-0.380
'24:02.486',-0.225,-0.380
'24:02.489',-0.225,-0.405
'24:02.492',-0.235,-0.430
'24:02.494',-0.255,-0.440
'24:02.497',-0.280,-0.460
'24:02.500',-0.300,-0.475
'24:02.503',-0.295,-0.470
'24:02.506',-0.305,-0.460
'24:02.508',-0.295,-0.450
'24:02.511',-0.300,-0.435
'24:02.514',-0.295,-0.430
'24:02.517',-0.295,-0.430
'24:02.519',-0.295,-0.430
'24:02.522',-0.300,-0.440
'24:02.525',-0.300,-0.430
'24:02.528',-0.320,-0.445
'24:02.531',-0.325,-0.435
'24:02.533',-0.340,-0.440
'24:02.536',-0.355,-0.445
'24:02.539',-0.365,-0.435
'24:02.542',-0.365,-0.425
'24:02.544',-0.360,-0.410
'24:02.547',-0.360,-0.405
'24:02.550',-0.350,-0.405
'24:02.553',-0.350,-0.400
'24:02.556',-0.350,-0.395
'24:02.558',-0.350,-0.415
'24:02.561',-0.345,-0.415
'24:02.564',-0.355,-0.425
'24:02.567',-0.355,-0.420
'24:02.569',-0.355,-0.420
'24:02.572',-0.360,-0.425
'24:02.575',-0.355,-0.425
'24:02.578',-0.340,-0.420
'24:02.581',-0.345,-0.415
'24:02.583',-0.345,-0.405
'24:02.586',-0.370,-0.405
'24:02.589',-0.390,-0.410
'24:02.592',-0.395,-0.410
'24:02.594',-0.355,-0.405
'24:02.597',-0.280,-0.405
'24:02.600',-0.175,-0.410
'24:02.603',-0.015,-0.415
'24:02.606',0.175,-0.420
'24:02.608',0.410,-0.475
'24:02.611',0.645,-0.520
'24:02.614',0.840,-0.565
'24:02.617',0.930,-0.605
'24:02.619',0.860,-0.630
'24:02.622',0.645,-0.640
'24:02.625',0.325,-0.610
'24:02.628',-0.015,-0.570
'24:02.631',-0.275,-0.520
'24:02.633',-0.435,-0.455
'24:02.636',-0.475,-0.395
'24:02.639',-0.425,-0.355
'24:02.642',-0.335,-0.360
'24:02.644',-0.270,-0.370
'24:02.647',-0.230,-0.405
'24:02.650',-0.215,-0.455
'24:02.653',-0.215,-0.470
'24:02.656',-0.235,-0.490
'24:02.658',-0.260,-0.490
'24:02.661',-0.275,-0.485
'24:02.664',-0.295,-0.470
'24:02.667',-0.310,-0.455
'24:02.669',-0.315,-0.450
'24:02.672',-0.320,-0.440
'24:02.675',-0.310,-0.425
'24:02.678',-0.305,-0.430
'24:02.681',-0.305,-0.430
'24:02.683',-0.305,-0.410
'24:02.686',-0.290,-0.410
'24:02.689',-0.300,-0.415
'24:02.692',-0.290,-0.410
'24:02.694',-0.300,-0.425
'24:02.697',-0.295,-0.440
'24:02.700',-0.305,-0.435
'24:02.703',-0.315,-0.440
'24:02.706',-0.320,-0.430
'24:02.708',-0.310,-0.430
'24:02.711',-0.310,-0.420
'24:02.714',-0.300,-0.415
'24:02.717',-0.290,-0.405
'24:02.719',-0.285,-0.410
'24:02.722',-0.290,-0.410
'24:02.725',-0.290,-0.430
'24:02.728',-0.300,-0.420
'24:02.731',-0.305,-0.435
'24:02.733',-0.315,-0.440
'24:02.736',-0.315,-0.440
'24:02.739',-0.315,-0.435
'24:02.742',-0.310,-0.435
'24:02.744',-0.300,-0.420
'24:02.747',-0.295,-0.415
'24:02.750',-0.275,-0.410
'24:02.753',-0.275,-0.420
'24:02.756',-0.260,-0.425
'24:02.758',-0.265,-0.425
'24:02.761',-0.265,-0.445
'24:02.764',-0.265,-0.445
'24:02.767',-0.290,-0.445
'24:02.769',-0.290,-0.450
'24:02.772',-0.295,-0.445
'24:02.775',-0.285,-0.445
'24:02.778',-0.280,-0.445
'24:02.781',-0.260,-0.445
'24:02.783',-0.265,-0.435
'24:02.786',-0.265,-0.430
'24:02.789',-0.260,-0.450
'24:02.792',-0.265,-0.445
'24:02.794',-0.270,-0.460
'24:02.797',-0.265,-0.460
'24:02.800',-0.280,-0.485
'24:02.803',-0.280,-0.480
'24:02.806',-0.280,-0.470
'24:02.808',-0.270,-0.470
'24:02.811',-0.265,-0.465
'24:02.814',-0.260,-0.460
'24:02.817',-0.260,-0.450
'24:02.819',-0.240,-0.455
'24:02.822',-0.245,-0.465
'24:02.825',-0.245,-0.470
'24:02.828',-0.250,-0.480
'24:02.831',-0.250,-0.480
'24:02.833',-0.265,-0.485
'24:02.836',-0.270,-0.485
'24:02.839',-0.265,-0.490
'24:02.842',-0.265,-0.485
'24:02.844',-0.260,-0.480
'24:02.847',-0.270,-0.480
'24:02.850',-0.250,-0.470
'24:02.853',-0.245,-0.475
'24:02.856',-0.245,-0.480
'24:02.858',-0.245,-0.490
'24:02.861',-0.250,-0.495
'24:02.864',-0.260,-0.495
'24:02.867',-0.260,-0.520
'24:02.869',-0.260,-0.505
'24:02.872',-0.265,-0.505
'24:02.875',-0.255,-0.510
'24:02.878',-0.240,-0.510
'24:02.881',-0.235,-0.495
'24:02.883',-0.215,-0.485
'24:02.886',-0.215,-0.490
'24:02.889',-0.210,-0.500
'24:02.892',-0.205,-0.510
'24:02.894',-0.205,-0.520
'24:02.897',-0.190,-0.525
'24:02.900',-0.195,-0.515
'24:02.903',-0.190,-0.525
'24:02.906',-0.190,-0.520
'24:02.908',-0.175,-0.515
'24:02.911',-0.170,-0.510
'24:02.914',-0.170,-0.505
'24:02.917',-0.170,-0.495
'24:02.919',-0.165,-0.510
'24:02.922',-0.175,-0.510
'24:02.925',-0.185,-0.510
'24:02.928',-0.190,-0.505
'24:02.931',-0.195,-0.515
'24:02.933',-0.210,-0.515
'24:02.936',-0.225,-0.515
'24:02.939',-0.235,-0.505
'24:02.942',-0.235,-0.505
'24:02.944',-0.245,-0.490
'24:02.947',-0.235,-0.475
'24:02.950',-0.245,-0.465
'24:02.953',-0.240,-0.460
'24:02.956',-0.250,-0.460
'24:02.958',-0.265,-0.470
'24:02.961',-0.270,-0.460
'24:02.964',-0.285,-0.465
'24:02.967',-0.290,-0.470
'24:02.969',-0.300,-0.465
'24:02.972',-0.305,-0.460
'24:02.975',-0.310,-0.450
'24:02.978',-0.295,-0.445
'24:02.981',-0.300,-0.435
'24:02.983',-0.295,-0.440
'24:02.986',-0.290,-0.425
'24:02.989',-0.295,-0.425
'24:02.992',-0.300,-0.425
'24:02.994',-0.305,-0.430
'24:02.997',-0.310,-0.430
'24:03.000',-0.320,-0.445
'24:03.003',-0.315,-0.440
'24:03.006',-0.325,-0.440
'24:03.008',-0.320,-0.430
'24:03.011',-0.320,-0.420
'24:03.014',-0.320,-0.420
'24:03.017',-0.315,-0.405
'24:03.019',-0.315,-0.415
'24:03.022',-0.315,-0.425
'24:03.025',-0.315,-0.420
'24:03.028',-0.330,-0.420
'24:03.031',-0.335,-0.425
'24:03.033',-0.345,-0.440
'24:03.036',-0.350,-0.430
'24:03.039',-0.355,-0.435
'24:03.042',-0.340,-0.430
'24:03.044',-0.335,-0.415
'24:03.047',-0.335,-0.405
'24:03.050',-0.325,-0.415
'24:03.053',-0.335,-0.415
'24:03.056',-0.330,-0.415
'24:03.058',-0.335,-0.420
'24:03.061',-0.335,-0.440
'24:03.064',-0.350,-0.430
'24:03.067',-0.355,-0.450
'24:03.069',-0.370,-0.440
'24:03.072',-0.370,-0.445
'24:03.075',-0.370,-0.435
'24:03.078',-0.360,-0.420
'24:03.081',-0.355,-0.415
'24:03.083',-0.340,-0.415
'24:03.086',-0.345,-0.410
'24:03.089',-0.340,-0.430
'24:03.092',-0.350,-0.425
'24:03.094',-0.340,-0.425
'24:03.097',-0.350,-0.440
'24:03.100',-0.370,-0.440
'24:03.103',-0.365,-0.450
'24:03.106',-0.370,-0.435
'24:03.108',-0.370,-0.425
'24:03.111',-0.370,-0.430
'24:03.114',-0.360,-0.420
'24:03.117',-0.360,-0.415
'24:03.119',-0.350,-0.405
'24:03.122',-0.340,-0.425
'24:03.125',-0.340,-0.420
'24:03.128',-0.350,-0.430
'24:03.131',-0.360,-0.430
'24:03.133',-0.365,-0.445
'24:03.136',-0.375,-0.445
'24:03.139',-0.370,-0.440
'24:03.142',-0.365,-0.435
'24:03.144',-0.360,-0.430
'24:03.147',-0.360,-0.425
'24:03.150',-0.350,-0.415
'24:03.153',-0.350,-0.420
'24:03.156',-0.355,-0.430
'24:03.158',-0.350,-0.425
'24:03.161',-0.365,-0.435
'24:03.164',-0.365,-0.440
'24:03.167',-0.380,-0.440
'24:03.169',-0.375,-0.445
'24:03.172',-0.380,-0.440
'24:03.175',-0.370,-0.425
'24:03.178',-0.355,-0.425
'24:03.181',-0.365,-0.430
'24:03.183',-0.355,-0.420
'24:03.186',-0.340,-0.415
'24:03.189',-0.315,-0.420
'24:03.192',-0.305,-0.415
'24:03.194',-0.310,-0.415
'24:03.197',-0.305,-0.425
'24:03.200',-0.310,-0.430
'24:03.203',-0.320,-0.420
'24:03.206',-0.325,-0.415
'24:03.208',-0.305,-0.410
'24:03.211',-0.285,-0.405
'24:03.214',-0.275,-0.400
'24:03.217',-0.260,-0.400
'24:03.219',-0.255,-0.410
'24:03.222',-0.270,-0.430
'24:03.225',-0.280,-0.450
'24:03.228',-0.310,-0.465
'24:03.231',-0.325,-0.470
'24:03.233',-0.330,-0.475
'24:03.236',-0.325,-0.475
'24:03.239',-0.330,-0.480
'24:03.242',-0.335,-0.470
'24:03.244',-0.330,-0.450
'24:03.247',-0.330,-0.435
'24:03.250',-0.340,-0.430
'24:03.253',-0.330,-0.440
'24:03.256',-0.330,-0.435
'24:03.258',-0.335,-0.445
'24:03.261',-0.345,-0.445
'24:03.264',-0.360,-0.450
'24:03.267',-0.385,-0.450
'24:03.269',-0.390,-0.455
'24:03.272',-0.405,-0.445
'24:03.275',-0.395,-0.450
'24:03.278',-0.385,-0.440
'24:03.281',-0.395,-0.430
'24:03.283',-0.390,-0.420
'24:03.286',-0.385,-0.415
'24:03.289',-0.380,-0.420
'24:03.292',-0.385,-0.425
'24:03.294',-0.385,-0.440
'24:03.297',-0.390,-0.455
'24:03.300',-0.400,-0.450
'24:03.303',-0.390,-0.455
'24:03.306',-0.410,-0.455
'24:03.308',-0.400,-0.445
'24:03.311',-0.385,-0.445
'24:03.314',-0.390,-0.435
'24:03.317',-0.390,-0.425
'24:03.319',-0.410,-0.430
'24:03.322',-0.415,-0.425
'24:03.325',-0.425,-0.425
'24:03.328',-0.390,-0.430
'24:03.331',-0.330,-0.435
'24:03.333',-0.225,-0.440
'24:03.336',-0.100,-0.440
'24:03.339',0.100,-0.440
'24:03.342',0.305,-0.480
'24:03.344',0.535,-0.515
'24:03.347',0.750,-0.550
'24:03.350',0.890,-0.600
'24:03.353',0.885,-0.645
'24:03.356',0.700,-0.665
'24:03.358',0.395,-0.645
'24:03.361',0.050,-0.615
'24:03.364',-0.260,-0.545
'24:03.367',-0.465,-0.485
'24:03.369',-0.535,-0.405
'24:03.372',-0.510,-0.370
'24:03.375',-0.420,-0.350
'24:03.378',-0.345,-0.355
'24:03.381',-0.300,-0.390
'24:03.383',-0.280,-0.435
'24:03.386',-0.275,-0.470
'24:03.389',-0.275,-0.495
'24:03.392',-0.300,-0.510
'24:03.394',-0.315,-0.505
'24:03.397',-0.335,-0.500
'24:03.400',-0.350,-0.495
'24:03.403',-0.360,-0.480
'24:03.406',-0.365,-0.470
'24:03.408',-0.365,-0.465
'24:03.411',-0.350,-0.460
'24:03.414',-0.355,-0.455
'24:03.417',-0.360,-0.440
'24:03.419',-0.345,-0.440
'24:03.422',-0.345,-0.435
'24:03.425',-0.350,-0.455
'24:03.428',-0.355,-0.455
'24:03.431',-0.370,-0.465
'24:03.433',-0.370,-0.465
'24:03.436',-0.375,-0.465
'24:03.439',-0.380,-0.465
'24:03.442',-0.375,-0.460
'24:03.444',-0.365,-0.445
'24:03.447',-0.360,-0.450
'24:03.450',-0.365,-0.440
'24:03.453',-0.350,-0.435
'24:03.456',-0.355,-0.445
'24:03.458',-0.345,-0.445
'24:03.461',-0.350,-0.450
'24:03.464',-0.345,-0.460
'24:03.467',-0.355,-0.475
'24:03.469',-0.350,-0.480
'24:03.472',-0.360,-0.470
'24:03.475',-0.350,-0.475
'24:03.478',-0.350,-0.455
'24:03.481',-0.335,-0.450
'24:03.483',-0.340,-0.455
'24:03.486',-0.340,-0.455
'24:03.489',-0.325,-0.460
'24:03.492',-0.325,-0.460
'24:03.494',-0.325,-0.460
'24:03.497',-0.330,-0.480
'24:03.500',-0.325,-0.480
'24:03.503',-0.335,-0.495
'24:03.506',-0.345,-0.490
'24:03.508',-0.350,-0.490
'24:03.511',-0.345,-0.470
'24:03.514',-0.345,-0.475
'24:03.517',-0.330,-0.465
'24:03.519',-0.320,-0.470
'24:03.522',-0.320,-0.470
'24:03.525',-0.310,-0.485
'24:03.528',-0.310,-0.495
'24:03.531',-0.320,-0.500
'24:03.533',-0.320,-0.500
'24:03.536',-0.325,-0.515
'24:03.539',-0.315,-0.505
'24:03.542',-0.320,-0.495
'24:03.544',-0.305,-0.495
'24:03.547',-0.310,-0.495
'24:03.550',-0.295,-0.495
'24:03.553',-0.290,-0.495
'24:03.556',-0.295,-0.500
'24:03.558',-0.295,-0.520
'24:03.561',-0.295,-0.510
'24:03.564',-0.300,-0.515
'24:03.567',-0.305,-0.535
'24:03.569',-0.310,-0.545
'24:03.572',-0.310,-0.535
'24:03.575',-0.300,-0.535
'24:03.578',-0.300,-0.525
'24:03.581',-0.300,-0.535
'24:03.583',-0.295,-0.535
'24:03.586',-0.295,-0.525
'24:03.589',-0.290,-0.525
'24:03.592',-0.285,-0.540
'24:03.594',-0.285,-0.540
'24:03.597',-0.295,-0.545
'24:03.600',-0.300,-0.555
'24:03.603',-0.295,-0.550
'24:03.606',-0.290,-0.555
'24:03.608',-0.295,-0.565
'24:03.611',-0.285,-0.540
'24:03.614',-0.270,-0.540
'24:03.617',-0.255,-0.545
'24:03.619',-0.240,-0.545
'24:03.622',-0.235,-0.555
'24:03.625',-0.220,-0.555
'24:03.628',-0.220,-0.555
'24:03.631',-0.220,-0.575
'24:03.633',-0.225,-0.570
'24:03.636',-0.215,-0.575
'24:03.639',-0.215,-0.570
'24:03.642',-0.215,-0.560
'24:03.644',-0.200,-0.560
'24:03.647',-0.205,-0.555
'24:03.650',-0.185,-0.545
'24:03.653',-0.195,-0.535
'24:03.656',-0.190,-0.555
'24:03.658',-0.190,-0.555
'24:03.661',-0.205,-0.555
'24:03.664',-0.210,-0.555
'24:03.667',-0.225,-0.565
'24:03.669',-0.235,-0.570
'24:03.672',-0.245,-0.555
'24:03.675',-0.255,-0.545
'24:03.678',-0.265,-0.545
'24:03.681',-0.255,-0.535
'24:03.683',-0.260,-0.520
'24:03.686',-0.265,-0.505
'24:03.689',-0.275,-0.510
'24:03.692',-0.280,-0.520
'24:03.694',-0.285,-0.520
'24:03.697',-0.300,-0.515
'24:03.700',-0.315,-0.515
'24:03.703',-0.330,-0.515
'24:03.706',-0.330,-0.510
'24:03.708',-0.325,-0.505
'24:03.711',-0.320,-0.490
'24:03.714',-0.310,-0.480
'24:03.717',-0.315,-0.485
'24:03.719',-0.310,-0.470
'24:03.722',-0.310,-0.480
'24:03.725',-0.310,-0.465
'24:03.728',-0.305,-0.480
'24:03.731',-0.330,-0.480
'24:03.733',-0.330,-0.475
'24:03.736',-0.340,-0.480
'24:03.739',-0.350,-0.480
'24:03.742',-0.355,-0.485
'24:03.744',-0.350,-0.475
'24:03.747',-0.345,-0.465
'24:03.750',-0.340,-0.465
'24:03.753',-0.330,-0.455
'24:03.756',-0.335,-0.455
'24:03.758',-0.330,-0.460
'24:03.761',-0.340,-0.465
'24:03.764',-0.350,-0.470
'24:03.767',-0.350,-0.475
'24:03.769',-0.360,-0.480
'24:03.772',-0.360,-0.485
'24:03.775',-0.370,-0.460
'24:03.778',-0.365,-0.465
'24:03.781',-0.355,-0.465
'24:03.783',-0.355,-0.450
'24:03.786',-0.340,-0.445
'24:03.789',-0.355,-0.450
'24:03.792',-0.350,-0.455
'24:03.794',-0.350,-0.465
'24:03.797',-0.365,-0.475
'24:03.800',-0.380,-0.480
'24:03.803',-0.390,-0.475
'24:03.806',-0.400,-0.465
'24:03.808',-0.390,-0.470
'24:03.811',-0.390,-0.465
'24:03.814',-0.390,-0.460
'24:03.817',-0.370,-0.455
'24:03.819',-0.365,-0.460
'24:03.822',-0.355,-0.465
'24:03.825',-0.365,-0.465
'24:03.828',-0.365,-0.470
'24:03.831',-0.375,-0.470
'24:03.833',-0.390,-0.470
'24:03.836',-0.385,-0.485
'24:03.839',-0.395,-0.480
'24:03.842',-0.395,-0.475
'24:03.844',-0.385,-0.460
'24:03.847',-0.385,-0.450
'24:03.850',-0.365,-0.455
'24:03.853',-0.365,-0.450
'24:03.856',-0.360,-0.465
'24:03.858',-0.370,-0.460
'24:03.861',-0.385,-0.465
'24:03.864',-0.390,-0.475
'24:03.867',-0.395,-0.475
'24:03.869',-0.400,-0.475
'24:03.872',-0.405,-0.470
'24:03.875',-0.405,-0.470
'24:03.878',-0.385,-0.465
'24:03.881',-0.395,-0.460
'24:03.883',-0.375,-0.450
'24:03.886',-0.370,-0.455
'24:03.889',-0.360,-0.460
'24:03.892',-0.370,-0.460
'24:03.894',-0.370,-0.465
'24:03.897',-0.370,-0.475
'24:03.900',-0.385,-0.470
'24:03.903',-0.390,-0.485
'24:03.906',-0.395,-0.475
'24:03.908',-0.395,-0.475
'24:03.911',-0.390,-0.470
'24:03.914',-0.385,-0.460
'24:03.917',-0.360,-0.450
'24:03.919',-0.360,-0.450
'24:03.922',-0.340,-0.465
'24:03.925',-0.330,-0.450
'24:03.928',-0.320,-0.470
'24:03.931',-0.330,-0.460
'24:03.933',-0.330,-0.470
'24:03.936',-0.335,-0.455
'24:03.939',-0.340,-0.460
'24:03.942',-0.340,-0.445
'24:03.944',-0.330,-0.440
'24:03.947',-0.310,-0.440
'24:03.950',-0.295,-0.440
'24:03.953',-0.275,-0.430
'24:03.956',-0.260,-0.435
'24:03.958',-0.270,-0.445
'24:03.961',-0.295,-0.460
'24:03.964',-0.310,-0.480
'24:03.967',-0.315,-0.495
'24:03.969',-0.335,-0.500
'24:03.972',-0.330,-0.500
'24:03.975',-0.335,-0.500
'24:03.978',-0.335,-0.500
'24:03.981',-0.330,-0.485
'24:03.983',-0.335,-0.475
'24:03.986',-0.335,-0.475
'24:03.989',-0.330,-0.490
'24:03.992',-0.340,-0.480
'24:03.994',-0.350,-0.485
'24:03.997',-0.365,-0.495
'24:04.000',-0.370,-0.505
'24:04.003',-0.385,-0.495
'24:04.006',-0.400,-0.500
'24:04.008',-0.405,-0.480
'24:04.011',-0.410,-0.475
'24:04.014',-0.395,-0.475
'24:04.017',-0.390,-0.465
'24:04.019',-0.385,-0.470
'24:04.022',-0.370,-0.470
'24:04.025',-0.390,-0.465
'24:04.028',-0.385,-0.475
'24:04.031',-0.395,-0.485
'24:04.033',-0.400,-0.490
'24:04.036',-0.400,-0.495
'24:04.039',-0.410,-0.485
'24:04.042',-0.400,-0.490
'24:04.044',-0.400,-0.475
'24:04.047',-0.385,-0.470
'24:04.050',-0.390,-0.460
'24:04.053',-0.390,-0.460
'24:04.056',-0.410,-0.465
'24:04.058',-0.430,-0.465
'24:04.061',-0.445,-0.465
'24:04.064',-0.450,-0.490
'24:04.067',-0.390,-0.475
'24:04.069',-0.315,-0.475
'24:04.072',-0.175,-0.475
'24:04.075',0.010,-0.480
'24:04.078',0.225,-0.475
'24:04.081',0.455,-0.510
'24:04.083',0.680,-0.555
'24:04.086',0.865,-0.595
'24:04.089',0.935,-0.645
'24:04.092',0.845,-0.660
'24:04.094',0.600,-0.670
'24:04.097',0.255,-0.645
'24:04.100',-0.100,-0.605
'24:04.103',-0.370,-0.545
'24:04.106',-0.535,-0.475
'24:04.108',-0.565,-0.420
'24:04.111',-0.490,-0.385
'24:04.114',-0.395,-0.360
'24:04.117',-0.320,-0.390
'24:04.119',-0.280,-0.425
'24:04.122',-0.260,-0.475
'24:04.125',-0.270,-0.510
'24:04.128',-0.270,-0.535
'24:04.131',-0.295,-0.550
'24:04.133',-0.315,-0.550
'24:04.136',-0.325,-0.535
'24:04.139',-0.345,-0.515
'24:04.142',-0.345,-0.505
'24:04.144',-0.345,-0.500
'24:04.147',-0.335,-0.485
'24:04.150',-0.330,-0.475
'24:04.153',-0.335,-0.475
'24:04.156',-0.320,-0.475
'24:04.158',-0.320,-0.475
'24:04.161',-0.335,-0.485
'24:04.164',-0.340,-0.480
'24:04.167',-0.345,-0.490
'24:04.169',-0.345,-0.495
'24:04.172',-0.345,-0.495
'24:04.175',-0.350,-0.480
'24:04.178',-0.350,-0.465
'24:04.181',-0.340,-0.470
'24:04.183',-0.330,-0.465
'24:04.186',-0.315,-0.455
'24:04.189',-0.320,-0.455
'24:04.192',-0.310,-0.470
'24:04.194',-0.320,-0.480
'24:04.197',-0.320,-0.475
'24:04.200',-0.330,-0.490
'24:04.203',-0.325,-0.490
'24:04.206',-0.325,-0.480
'24:04.208',-0.315,-0.485
'24:04.211',-0.325,-0.465
'24:04.214',-0.315,-0.465
'24:04.217',-0.315,-0.470
'24:04.219',-0.305,-0.465
'24:04.222',-0.295,-0.480
'24:04.225',-0.290,-0.490
'24:04.228',-0.295,-0.490
'24:04.231',-0.305,-0.490
'24:04.233',-0.315,-0.495
'24:04.236',-0.315,-0.510
'24:04.239',-0.315,-0.505
'24:04.242',-0.315,-0.510
'24:04.244',-0.305,-0.495
'24:04.247',-0.305,-0.490
'24:04.250',-0.305,-0.485
'24:04.253',-0.295,-0.475
'24:04.256',-0.290,-0.475
'24:04.258',-0.295,-0.480
'24:04.261',-0.290,-0.490
'24:04.264',-0.290,-0.510
'24:04.267',-0.295,-0.525
'24:04.269',-0.300,-0.520
'24:04.272',-0.295,-0.530
'24:04.275',-0.290,-0.510
'24:04.278',-0.290,-0.510
'24:04.281',-0.280,-0.505
'24:04.283',-0.275,-0.495
'24:04.286',-0.270,-0.495
'24:04.289',-0.270,-0.500
'24:04.292',-0.265,-0.510
'24:04.294',-0.270,-0.510
'24:04.297',-0.285,-0.520
'24:04.300',-0.280,-0.545
'24:04.303',-0.285,-0.540
'24:04.306',-0.295,-0.545
'24:04.308',-0.280,-0.535
'24:04.311',-0.280,-0.525
'24:04.314',-0.280,-0.525
'24:04.317',-0.275,-0.515
'24:04.319',-0.260,-0.510
'24:04.322',-0.260,-0.520
'24:04.325',-0.265,-0.525
'24:04.328',-0.265,-0.535
'24:04.331',-0.270,-0.550
'24:04.333',-0.275,-0.560
'24:04.336',-0.275,-0.565
'24:04.339',-0.285,-0.555
'24:04.342',-0.280,-0.545
'24:04.344',-0.265,-0.540
'24:04.347',-0.255,-0.545
'24:04.350',-0.250,-0.530
'24:04.353',-0.245,-0.530
'24:04.356',-0.240,-0.545
'24:04.358',-0.235,-0.545
'24:04.361',-0.225,-0.550
'24:04.364',-0.215,-0.555
'24:04.367',-0.215,-0.570
'24:04.369',-0.210,-0.565
'24:04.372',-0.200,-0.575
'24:04.375',-0.205,-0.555
'24:04.378',-0.185,-0.545
'24:04.381',-0.185,-0.545
'24:04.383',-0.180,-0.540
'24:04.386',-0.165,-0.535
'24:04.389',-0.165,-0.530
'24:04.392',-0.165,-0.535
'24:04.394',-0.170,-0.545
'24:04.397',-0.180,-0.550
'24:04.400',-0.200,-0.550
'24:04.403',-0.200,-0.545
'24:04.406',-0.215,-0.550
'24:04.408',-0.220,-0.530
'24:04.411',-0.220,-0.525
'24:04.414',-0.225,-0.510
'24:04.417',-0.220,-0.500
'24:04.419',-0.220,-0.490
'24:04.422',-0.230,-0.495
'24:04.425',-0.230,-0.485
'24:04.428',-0.245,-0.485
'24:04.431',-0.260,-0.495
'24:04.433',-0.265,-0.505
'24:04.436',-0.275,-0.495
'24:04.439',-0.280,-0.495
'24:04.442',-0.280,-0.485
'24:04.444',-0.275,-0.480
'24:04.447',-0.275,-0.470
'24:04.450',-0.270,-0.465
'24:04.453',-0.265,-0.455
'24:04.456',-0.265,-0.455
'24:04.458',-0.270,-0.450
'24:04.461',-0.270,-0.460
'24:04.464',-0.285,-0.470
'24:04.467',-0.290,-0.465
'24:04.469',-0.290,-0.470
'24:04.472',-0.295,-0.465
'24:04.475',-0.305,-0.465
'24:04.478',-0.295,-0.445
'24:04.481',-0.290,-0.435
'24:04.483',-0.290,-0.435
'24:04.486',-0.285,-0.430
'24:04.489',-0.285,-0.430
'24:04.492',-0.285,-0.450
'24:04.494',-0.295,-0.440
'24:04.497',-0.300,-0.455
'24:04.500',-0.310,-0.450
'24:04.503',-0.310,-0.460
'24:04.506',-0.310,-0.465
'24:04.508',-0.315,-0.455
'24:04.511',-0.310,-0.445
'24:04.514',-0.300,-0.445
'24:04.517',-0.305,-0.435
'24:04.519',-0.300,-0.430
'24:04.522',-0.305,-0.430
'24:04.525',-0.295,-0.440
'24:04.528',-0.300,-0.450
'24:04.531',-0.300,-0.450
'24:04.533',-0.315,-0.455
'24:04.536',-0.310,-0.465
'24:04.539',-0.320,-0.465
'24:04.542',-0.320,-0.450
'24:04.544',-0.315,-0.435
'24:04.547',-0.315,-0.440
'24:04.550',-0.305,-0.430
'24:04.553',-0.310,-0.425
'24:04.556',-0.310,-0.440
'24:04.558',-0.305,-0.430
'24:04.561',-0.315,-0.425
'24:04.564',-0.315,-0.435
'24:04.567',-0.315,-0.455
'24:04.569',-0.320,-0.450
'24:04.572',-0.325,-0.440
'24:04.575',-0.320,-0.440
'24:04.578',-0.315,-0.440
'24:04.581',-0.305,-0.430
'24:04.583',-0.310,-0.425
'24:04.586',-0.305,-0.420
'24:04.589',-0.305,-0.415
'24:04.592',-0.300,-0.420
'24:04.594',-0.305,-0.430
'24:04.597',-0.315,-0.440
'24:04.600',-0.325,-0.440
'24:04.603',-0.315,-0.450
'24:04.606',-0.320,-0.440
'24:04.608',-0.340,-0.435
'24:04.611',-0.320,-0.435
'24:04.614',-0.310,-0.415
'24:04.617',-0.310,-0.415
'24:04.619',-0.305,-0.415
'24:04.622',-0.305,-0.415
'24:04.625',-0.315,-0.430
'24:04.628',-0.315,-0.425
'24:04.631',-0.320,-0.430
'24:04.633',-0.330,-0.445
'24:04.636',-0.330,-0.450
'24:04.639',-0.330,-0.440
'24:04.642',-0.330,-0.430
'24:04.644',-0.325,-0.430
'24:04.647',-0.305,-0.420
'24:04.650',-0.285,-0.415
'24:04.653',-0.280,-0.420
'24:04.656',-0.265,-0.410
'24:04.658',-0.255,-0.420
'24:04.661',-0.250,-0.420
'24:04.664',-0.255,-0.420
'24:04.667',-0.265,-0.425
'24:04.669',-0.265,-0.420
'24:04.672',-0.275,-0.415
'24:04.675',-0.270,-0.410
'24:04.678',-0.260,-0.405
'24:04.681',-0.235,-0.390
'24:04.683',-0.215,-0.380
'24:04.686',-0.195,-0.385
'24:04.689',-0.195,-0.400
'24:04.692',-0.200,-0.405
'24:04.694',-0.220,-0.420
'24:04.697',-0.235,-0.435
'24:04.700',-0.265,-0.460
'24:04.703',-0.265,-0.470
'24:04.706',-0.270,-0.470
'24:04.708',-0.280,-0.465
'24:04.711',-0.285,-0.455
'24:04.714',-0.285,-0.450
'24:04.717',-0.290,-0.435
'24:04.719',-0.275,-0.425
'24:04.722',-0.280,-0.440
'24:04.725',-0.270,-0.430
'24:04.728',-0.285,-0.440
'24:04.731',-0.310,-0.445
'24:04.733',-0.320,-0.455
'24:04.736',-0.325,-0.445
'24:04.739',-0.340,-0.440
'24:04.742',-0.360,-0.440
'24:04.744',-0.370,-0.430
'24:04.747',-0.360,-0.425
'24:04.750',-0.350,-0.410
'24:04.753',-0.345,-0.415
'24:04.756',-0.355,-0.410
'24:04.758',-0.345,-0.420
'24:04.761',-0.345,-0.425
'24:04.764',-0.350,-0.420
'24:04.767',-0.355,-0.430
'24:04.769',-0.355,-0.435
'24:04.772',-0.355,-0.435
'24:04.775',-0.360,-0.430
'24:04.778',-0.350,-0.420
'24:04.781',-0.340,-0.415
'24:04.783',-0.335,-0.405
'24:04.786',-0.330,-0.420
'24:04.789',-0.340,-0.410
'24:04.792',-0.355,-0.420
'24:04.794',-0.380,-0.425
'24:04.797',-0.405,-0.430
'24:04.800',-0.395,-0.435
'24:04.803',-0.345,-0.425
'24:04.806',-0.260,-0.420
'24:04.808',-0.130,-0.410
'24:04.811',0.040,-0.405
'24:04.814',0.240,-0.415
'24:04.817',0.455,-0.450
'24:04.819',0.685,-0.495
'24:04.822',0.855,-0.555
'24:04.825',0.935,-0.585
'24:04.828',0.850,-0.615
'24:04.831',0.610,-0.620
'24:04.833',0.290,-0.610
'24:04.836',-0.040,-0.580
'24:04.839',-0.310,-0.530
'24:04.842',-0.460,-0.465
'24:04.844',-0.475,-0.405
'24:04.847',-0.420,-0.375
'24:04.850',-0.330,-0.360
'24:04.853',-0.250,-0.370
'24:04.856',-0.210,-0.430
'24:04.858',-0.200,-0.475
'24:04.861',-0.215,-0.495
'24:04.864',-0.235,-0.500
'24:04.867',-0.260,-0.505
'24:04.869',-0.285,-0.505
'24:04.872',-0.300,-0.480
'24:04.875',-0.305,-0.455
'24:04.878',-0.305,-0.455
'24:04.881',-0.305,-0.440
'24:04.883',-0.300,-0.430
'24:04.886',-0.290,-0.420
'24:04.889',-0.290,-0.430
'24:04.892',-0.300,-0.425
'24:04.894',-0.305,-0.430
'24:04.897',-0.310,-0.445
'24:04.900',-0.320,-0.435
'24:04.903',-0.320,-0.445
'24:04.906',-0.320,-0.450
'24:04.908',-0.320,-0.440
'24:04.911',-0.315,-0.435
'24:04.914',-0.305,-0.420
'24:04.917',-0.305,-0.415
'24:04.919',-0.295,-0.405
'24:04.922',-0.300,-0.405
'24:04.925',-0.295,-0.415
'24:04.928',-0.305,-0.425
'24:04.931',-0.305,-0.435
'24:04.933',-0.310,-0.435
'24:04.936',-0.325,-0.435
'24:04.939',-0.325,-0.435
'24:04.942',-0.315,-0.430
'24:04.944',-0.310,-0.430
'24:04.947',-0.305,-0.430
'24:04.950',-0.290,-0.425
'24:04.953',-0.280,-0.415
'24:04.956',-0.285,-0.435
'24:04.958',-0.275,-0.430
'24:04.961',-0.280,-0.430
'24:04.964',-0.290,-0.450
'24:04.967',-0.285,-0.455
'24:04.969',-0.285,-0.455
'24:04.972',-0.290,-0.455
'24:04.975',-0.285,-0.440
'24:04.978',-0.285,-0.445
'24:04.981',-0.275,-0.440
'24:04.983',-0.270,-0.445
'24:04.986',-0.265,-0.430
'24:04.989',-0.255,-0.440
'24:04.992',-0.260,-0.430
'24:04.994',-0.255,-0.450
'24:04.997',-0.265,-0.465
'24:05.000',-0.265,-0.465
'24:05.003',-0.275,-0.470
'24:05.006',-0.285,-0.470
'24:05.008',-0.275,-0.460
'24:05.011',-0.275,-0.455
'24:05.014',-0.270,-0.455
'24:05.017',-0.255,-0.440
'24:05.019',-0.245,-0.450
'24:05.022',-0.250,-0.445
'24:05.025',-0.250,-0.460
'24:05.028',-0.240,-0.460
'24:05.031',-0.240,-0.470
'24:05.033',-0.250,-0.490
'24:05.036',-0.255,-0.490
'24:05.039',-0.250,-0.490
'24:05.042',-0.260,-0.475
'24:05.044',-0.240,-0.470
'24:05.047',-0.240,-0.470
'24:05.050',-0.245,-0.470
'24:05.053',-0.225,-0.470
'24:05.056',-0.225,-0.475
'24:05.058',-0.225,-0.470
'24:05.061',-0.220,-0.475
'24:05.064',-0.230,-0.495
'24:05.067',-0.230,-0.495
'24:05.069',-0.240,-0.495
'24:05.072',-0.240,-0.495
'24:05.075',-0.240,-0.490
'24:05.078',-0.230,-0.485
'24:05.081',-0.225,-0.490
'24:05.083',-0.220,-0.475
'24:05.086',-0.210,-0.480
'24:05.089',-0.200,-0.480
'24:05.092',-0.200,-0.485
'24:05.094',-0.200,-0.490
'24:05.097',-0.205,-0.495
'24:05.100',-0.195,-0.500
'24:05.103',-0.195,-0.515
'24:05.106',-0.195,-0.500
'24:05.108',-0.195,-0.505
'24:05.111',-0.185,-0.500
'24:05.114',-0.165,-0.485
'24:05.117',-0.160,-0.485
'24:05.119',-0.140,-0.475
'24:05.122',-0.135,-0.500
'24:05.125',-0.150,-0.490
'24:05.128',-0.155,-0.495
'24:05.131',-0.160,-0.495
'24:05.133',-0.155,-0.515
'24:05.136',-0.160,-0.520
'24:05.139',-0.170,-0.515
'24:05.142',-0.175,-0.505
'24:05.144',-0.180,-0.495
'24:05.147',-0.180,-0.485
'24:05.150',-0.185,-0.475
'24:05.153',-0.170,-0.460
'24:05.156',-0.195,-0.465
'24:05.158',-0.190,-0.460
'24:05.161',-0.210,-0.465
'24:05.164',-0.225,-0.460
'24:05.167',-0.230,-0.475
'24:05.169',-0.250,-0.480
'24:05.172',-0.260,-0.455
'24:05.175',-0.265,-0.445
'24:05.178',-0.255,-0.435
'24:05.181',-0.250,-0.435
'24:05.183',-0.245,-0.430
'24:05.186',-0.245,-0.425
'24:05.189',-0.255,-0.425
'24:05.192',-0.255,-0.425
'24:05.194',-0.265,-0.430
'24:05.197',-0.265,-0.430
'24:05.200',-0.280,-0.435
'24:05.203',-0.275,-0.440
'24:05.206',-0.290,-0.430
'24:05.208',-0.295,-0.420
'24:05.211',-0.285,-0.415
'24:05.214',-0.290,-0.410
'24:05.217',-0.285,-0.405
'24:05.219',-0.270,-0.400
'24:05.222',-0.265,-0.400
'24:05.225',-0.270,-0.410
'24:05.228',-0.290,-0.410
'24:05.231',-0.290,-0.415
'24:05.233',-0.295,-0.425
'24:05.236',-0.305,-0.435
'24:05.239',-0.305,-0.415
'24:05.242',-0.305,-0.420
'24:05.244',-0.300,-0.405
'24:05.247',-0.295,-0.405
'24:05.250',-0.290,-0.400
'24:05.253',-0.290,-0.380
'24:05.256',-0.290,-0.395
'24:05.258',-0.285,-0.390
'24:05.261',-0.300,-0.410
'24:05.264',-0.305,-0.415
'24:05.267',-0.310,-0.425
'24:05.269',-0.320,-0.425
'24:05.272',-0.330,-0.425
'24:05.275',-0.320,-0.425
'24:05.278',-0.325,-0.415
'24:05.281',-0.315,-0.405
'24:05.283',-0.310,-0.395
'24:05.286',-0.310,-0.380
'24:05.289',-0.310,-0.390
'24:05.292',-0.310,-0.405
'24:05.294',-0.315,-0.395
'24:05.297',-0.320,-0.410
'24:05.300',-0.335,-0.415
'24:05.303',-0.335,-0.430
'24:05.306',-0.335,-0.420
'24:05.308',-0.340,-0.410
'24:05.311',-0.345,-0.405
'24:05.314',-0.340,-0.400
'24:05.317',-0.335,-0.395
'24:05.319',-0.320,-0.385
'24:05.322',-0.325,-0.405
'24:05.325',-0.320,-0.395
'24:05.328',-0.320,-0.405
'24:05.331',-0.330,-0.410
'24:05.333',-0.330,-0.425
'24:05.336',-0.350,-0.420
'24:05.339',-0.355,-0.425
'24:05.342',-0.340,-0.415
'24:05.344',-0.340,-0.405
'24:05.347',-0.335,-0.410
'24:05.350',-0.330,-0.390
'24:05.353',-0.330,-0.385
'24:05.356',-0.320,-0.390
'24:05.358',-0.320,-0.390
'24:05.361',-0.320,-0.405
'24:05.364',-0.320,-0.415
'24:05.367',-0.340,-0.410
'24:05.369',-0.330,-0.430
'24:05.372',-0.340,-0.420
'24:05.375',-0.345,-0.415
'24:05.378',-0.340,-0.405
'24:05.381',-0.330,-0.395
'24:05.383',-0.330,-0.390
'24:05.386',-0.315,-0.390
'24:05.389',-0.310,-0.400
'24:05.392',-0.315,-0.395
'24:05.394',-0.310,-0.395
'24:05.397',-0.320,-0.400
'24:05.400',-0.315,-0.405
'24:05.403',-0.315,-0.420
'24:05.406',-0.300,-0.410
'24:05.408',-0.305,-0.410
'24:05.411',-0.285,-0.390
'24:05.414',-0.280,-0.385
'24:05.417',-0.260,-0.375
'24:05.419',-0.260,-0.370
'24:05.422',-0.265,-0.360
'24:05.425',-0.260,-0.370
'24:05.428',-0.250,-0.375
'24:05.431',-0.245,-0.375
'24:05.433',-0.240,-0.390
'24:05.436',-0.245,-0.390
'24:05.439',-0.240,-0.395
'24:05.442',-0.245,-0.405
'24:05.444',-0.250,-0.410
'24:05.447',-0.260,-0.405
'24:05.450',-0.265,-0.425
'24:05.453',-0.270,-0.420
'24:05.456',-0.270,-0.420
'24:05.458',-0.270,-0.415
'24:05.461',-0.275,-0.430
'24:05.464',-0.280,-0.435
'24:05.467',-0.290,-0.425
'24:05.469',-0.305,-0.425
'24:05.472',-0.310,-0.435
'24:05.475',-0.320,-0.430
'24:05.478',-0.310,-0.430
'24:05.481',-0.310,-0.425
'24:05.483',-0.305,-0.405
'24:05.486',-0.305,-0.400
'24:05.489',-0.320,-0.410
'24:05.492',-0.325,-0.400
'24:05.494',-0.330,-0.410
'24:05.497',-0.340,-0.410
'24:05.500',-0.340,-0.425
'24:05.503',-0.350,-0.410
'24:05.506',-0.350,-0.410
'24:05.508',-0.345,-0.410
'24:05.511',-0.345,-0.395
'24:05.514',-0.330,-0.395
'24:05.517',-0.320,-0.390
'24:05.519',-0.320,-0.385
'24:05.522',-0.320,-0.395
'24:05.525',-0.320,-0.395
'24:05.528',-0.320,-0.395
'24:05.531',-0.325,-0.405
'24:05.533',-0.330,-0.400
'24:05.536',-0.335,-0.415
'24:05.539',-0.350,-0.410
'24:05.542',-0.365,-0.405
'24:05.544',-0.380,-0.395
'24:05.547',-0.390,-0.390
'24:05.550',-0.385,-0.375
'24:05.553',-0.345,-0.370
'24:05.556',-0.275,-0.360
'24:05.558',-0.180,-0.360
'24:05.561',-0.050,-0.380
'24:05.564',0.100,-0.395
'24:05.567',0.265,-0.425
'24:05.569',0.460,-0.475
'24:05.572',0.660,-0.515
'24:05.575',0.820,-0.560
'24:05.578',0.905,-0.595
'24:05.581',0.855,-0.605
'24:05.583',0.680,-0.600
'24:05.586',0.405,-0.595
'24:05.589',0.095,-0.565
'24:05.592',-0.180,-0.510
'24:05.594',-0.360,-0.455
'24:05.597',-0.445,-0.415
'24:05.600',-0.425,-0.375
'24:05.603',-0.355,-0.360
'24:05.606',-0.280,-0.385
'24:05.608',-0.230,-0.420
'24:05.611',-0.210,-0.445
'24:05.614',-0.200,-0.470
'24:05.617',-0.220,-0.480
'24:05.619',-0.225,-0.465
'24:05.622',-0.260,-0.460
'24:05.625',-0.275,-0.435
'24:05.628',-0.290,-0.440
'24:05.631',-0.300,-0.430
'24:05.633',-0.305,-0.435
'24:05.636',-0.310,-0.430
'24:05.639',-0.305,-0.425
'24:05.642',-0.310,-0.415
'24:05.644',-0.300,-0.415
'24:05.647',-0.305,-0.410
'24:05.650',-0.295,-0.400
'24:05.653',-0.295,-0.390
'24:05.656',-0.300,-0.405
'24:05.658',-0.285,-0.400
'24:05.661',-0.290,-0.410
'24:05.664',-0.300,-0.420
'24:05.667',-0.305,-0.425
'24:05.669',-0.305,-0.425
'24:05.672',-0.315,-0.420
'24:05.675',-0.315,-0.415
'24:05.678',-0.310,-0.420
'24:05.681',-0.300,-0.400
'24:05.683',-0.295,-0.395
'24:05.686',-0.290,-0.390
'24:05.689',-0.280,-0.400
'24:05.692',-0.275,-0.400
'24:05.694',-0.280,-0.410
'24:05.697',-0.290,-0.420
'24:05.700',-0.290,-0.415
'24:05.703',-0.310,-0.425
'24:05.706',-0.300,-0.420
'24:05.708',-0.300,-0.410
'24:05.711',-0.290,-0.415
'24:05.714',-0.285,-0.410
'24:05.717',-0.275,-0.405
'24:05.719',-0.275,-0.400
'24:05.722',-0.275,-0.405
'24:05.725',-0.270,-0.400
'24:05.728',-0.270,-0.425
'24:05.731',-0.280,-0.425
'24:05.733',-0.285,-0.430
'24:05.736',-0.295,-0.435
'24:05.739',-0.290,-0.435
'24:05.742',-0.290,-0.425
'24:05.744',-0.290,-0.425
'24:05.747',-0.295,-0.425
'24:05.750',-0.275,-0.415
'24:05.753',-0.265,-0.420
'24:05.756',-0.265,-0.425
'24:05.758',-0.260,-0.420
'24:05.761',-0.260,-0.420
'24:05.764',-0.260,-0.435
'24:05.767',-0.265,-0.440
'24:05.769',-0.285,-0.440
'24:05.772',-0.280,-0.445
'24:05.775',-0.270,-0.440
'24:05.778',-0.270,-0.425
'24:05.781',-0.260,-0.425
'24:05.783',-0.255,-0.430
'24:05.786',-0.245,-0.420
'24:05.789',-0.250,-0.425
'24:05.792',-0.245,-0.430
'24:05.794',-0.250,-0.435
'24:05.797',-0.260,-0.440
'24:05.800',-0.270,-0.455
'24:05.803',-0.270,-0.455
'24:05.806',-0.270,-0.460
'24:05.808',-0.265,-0.460
'24:05.811',-0.255,-0.455
'24:05.814',-0.255,-0.455
'24:05.817',-0.245,-0.440
'24:05.819',-0.235,-0.445
'24:05.822',-0.235,-0.440
'24:05.825',-0.230,-0.460
'24:05.828',-0.235,-0.465
'24:05.831',-0.255,-0.460
'24:05.833',-0.245,-0.475
'24:05.836',-0.255,-0.470
'24:05.839',-0.245,-0.475
'24:05.842',-0.250,-0.480
'24:05.844',-0.230,-0.465
'24:05.847',-0.230,-0.460
'24:05.850',-0.220,-0.465
'24:05.853',-0.200,-0.455
'24:05.856',-0.200,-0.470
'24:05.858',-0.190,-0.465
'24:05.861',-0.180,-0.480
'24:05.864',-0.200,-0.490
'24:05.867',-0.190,-0.495
'24:05.869',-0.200,-0.500
'24:05.872',-0.195,-0.505
'24:05.875',-0.180,-0.500
'24:05.878',-0.190,-0.480
'24:05.881',-0.175,-0.485
'24:05.883',-0.160,-0.475
'24:05.886',-0.155,-0.470
'24:05.889',-0.155,-0.460
'24:05.892',-0.170,-0.465
'24:05.894',-0.175,-0.475
'24:05.897',-0.180,-0.480
'24:05.900',-0.205,-0.480
'24:05.903',-0.205,-0.475
'24:05.906',-0.220,-0.470
'24:05.908',-0.225,-0.470
'24:05.911',-0.240,-0.465
'24:05.914',-0.235,-0.440
'24:05.917',-0.240,-0.435
'24:05.919',-0.235,-0.420
'24:05.922',-0.245,-0.430
'24:05.925',-0.245,-0.425
'24:05.928',-0.260,-0.435
'24:05.931',-0.260,-0.425
'24:05.933',-0.275,-0.440
'24:05.936',-0.290,-0.430
'24:05.939',-0.290,-0.440
'24:05.942',-0.290,-0.425
'24:05.944',-0.290,-0.415
'24:05.947',-0.280,-0.415
'24:05.950',-0.285,-0.400
'24:05.953',-0.275,-0.390
'24:05.956',-0.270,-0.400
'24:05.958',-0.275,-0.405
'24:05.961',-0.280,-0.400
'24:05.964',-0.290,-0.410
'24:05.967',-0.305,-0.420
'24:05.969',-0.310,-0.420
'24:05.972',-0.305,-0.410
'24:05.975',-0.315,-0.410
'24:05.978',-0.305,-0.400
'24:05.981',-0.305,-0.400
'24:05.983',-0.295,-0.390
'24:05.986',-0.300,-0.395
'24:05.989',-0.295,-0.390
'24:05.992',-0.295,-0.385
'24:05.994',-0.295,-0.395
'24:05.997',-0.310,-0.395
'24:06.000',-0.305,-0.410
'24:06.003',-0.320,-0.415
'24:06.006',-0.335,-0.415
'24:06.008',-0.330,-0.415
'24:06.011',-0.315,-0.410
'24:06.014',-0.310,-0.390
'24:06.017',-0.315,-0.400
'24:06.019',-0.305,-0.390
'24:06.022',-0.305,-0.390
'24:06.025',-0.305,-0.390
'24:06.028',-0.305,-0.395
'24:06.031',-0.315,-0.405
'24:06.033',-0.325,-0.410
'24:06.036',-0.325,-0.415
'24:06.039',-0.330,-0.415
'24:06.042',-0.335,-0.405
'24:06.044',-0.330,-0.400
'24:06.047',-0.320,-0.390
'24:06.050',-0.310,-0.395
'24:06.053',-0.310,-0.375
'24:06.056',-0.305,-0.380
'24:06.058',-0.310,-0.385
'24:06.061',-0.310,-0.400
'24:06.064',-0.320,-0.390
'24:06.067',-0.315,-0.410
'24:06.069',-0.325,-0.410
'24:06.072',-0.335,-0.405
'24:06.075',-0.335,-0.410
'24:06.078',-0.330,-0.400
'24:06.081',-0.325,-0.400
'24:06.083',-0.320,-0.385
'24:06.086',-0.315,-0.385
'24:06.089',-0.310,-0.390
'24:06.092',-0.310,-0.385
'24:06.094',-0.315,-0.390
'24:06.097',-0.325,-0.400
'24:06.100',-0.330,-0.410
'24:06.103',-0.330,-0.410
'24:06.106',-0.330,-0.415
'24:06.108',-0.340,-0.415
'24:06.111',-0.335,-0.400
'24:06.114',-0.330,-0.395
'24:06.117',-0.315,-0.385
'24:06.119',-0.315,-0.380
'24:06.122',-0.315,-0.390
'24:06.125',-0.320,-0.385
'24:06.128',-0.315,-0.400
'24:06.131',-0.320,-0.390
'24:06.133',-0.320,-0.405
'24:06.136',-0.315,-0.420
'24:06.139',-0.305,-0.415
'24:06.142',-0.295,-0.405
'24:06.144',-0.285,-0.400
'24:06.147',-0.270,-0.380
'24:06.150',-0.270,-0.375
'24:06.153',-0.270,-0.370
'24:06.156',-0.260,-0.370
'24:06.158',-0.260,-0.370
'24:06.161',-0.245,-0.370
'24:06.164',-0.250,-0.365
'24:06.167',-0.235,-0.390
'24:06.169',-0.235,-0.395
'24:06.172',-0.245,-0.410
'24:06.175',-0.260,-0.420
'24:06.178',-0.280,-0.420
'24:06.181',-0.290,-0.425
'24:06.183',-0.295,-0.415
'24:06.186',-0.285,-0.410
'24:06.189',-0.290,-0.415
'24:06.192',-0.275,-0.405
'24:06.194',-0.285,-0.415
'24:06.197',-0.300,-0.415
'24:06.200',-0.315,-0.420
'24:06.203',-0.320,-0.430
'24:06.206',-0.320,-0.430
'24:06.208',-0.335,-0.425
'24:06.211',-0.335,-0.415
'24:06.214',-0.335,-0.410
'24:06.217',-0.345,-0.395
'24:06.219',-0.350,-0.380
'24:06.222',-0.360,-0.380
'24:06.225',-0.340,-0.380
'24:06.228',-0.355,-0.390
'24:06.231',-0.355,-0.400
'24:06.233',-0.355,-0.400
'24:06.236',-0.365,-0.410
'24:06.239',-0.375,-0.415
'24:06.242',-0.375,-0.405
'24:06.244',-0.365,-0.400
'24:06.247',-0.355,-0.395
'24:06.250',-0.355,-0.395
'24:06.253',-0.350,-0.380
'24:06.256',-0.350,-0.385
'24:06.258',-0.345,-0.390
'24:06.261',-0.345,-0.390
'24:06.264',-0.360,-0.395
'24:06.267',-0.370,-0.415
'24:06.269',-0.385,-0.400
'24:06.272',-0.405,-0.415
'24:06.275',-0.425,-0.395
'24:06.278',-0.430,-0.405
'24:06.281',-0.395,-0.390
'24:06.283',-0.335,-0.370
'24:06.286',-0.235,-0.360
'24:06.289',-0.110,-0.365
'24:06.292',0.050,-0.380
'24:06.294',0.240,-0.410
'24:06.297',0.440,-0.455
'24:06.300',0.635,-0.505
'24:06.303',0.795,-0.550
'24:06.306',0.865,-0.605
'24:06.308',0.795,-0.625
'24:06.311',0.595,-0.625
'24:06.314',0.310,-0.600
'24:06.317',0.000,-0.555
'24:06.319',-0.245,-0.490
'24:06.322',-0.405,-0.435
'24:06.325',-0.440,-0.375
'24:06.328',-0.420,-0.335
'24:06.331',-0.350,-0.335
'24:06.333',-0.285,-0.355
'24:06.336',-0.255,-0.385
'24:06.339',-0.235,-0.430
'24:06.342',-0.250,-0.460
'24:06.344',-0.255,-0.470
'24:06.347',-0.265,-0.475
'24:06.350',-0.285,-0.455
'24:06.353',-0.290,-0.430
'24:06.356',-0.295,-0.415
'24:06.358',-0.310,-0.410
'24:06.361',-0.305,-0.415
'24:06.364',-0.305,-0.415
'24:06.367',-0.320,-0.420
'24:06.369',-0.335,-0.420
'24:06.372',-0.325,-0.420
'24:06.375',-0.335,-0.410
'24:06.378',-0.335,-0.400
'24:06.381',-0.325,-0.400
'24:06.383',-0.325,-0.385
'24:06.386',-0.315,-0.390
'24:06.389',-0.325,-0.385
'24:06.392',-0.295,-0.385
'24:06.394',-0.300,-0.400
'24:06.397',-0.315,-0.395
'24:06.400',-0.315,-0.405
'24:06.403',-0.320,-0.415
'24:06.406',-0.325,-0.410
'24:06.408',-0.330,-0.410
'24:06.411',-0.320,-0.400
'24:06.414',-0.320,-0.395
'24:06.417',-0.310,-0.385
'24:06.419',-0.310,-0.400
'24:06.422',-0.300,-0.390
'24:06.425',-0.300,-0.395
'24:06.428',-0.295,-0.395
'24:06.431',-0.305,-0.405
'24:06.433',-0.300,-0.410
'24:06.436',-0.315,-0.410
'24:06.439',-0.310,-0.410
'24:06.442',-0.315,-0.405
'24:06.444',-0.310,-0.410
'24:06.447',-0.320,-0.395
'24:06.450',-0.305,-0.400
'24:06.453',-0.295,-0.390
'24:06.456',-0.285,-0.385
'24:06.458',-0.280,-0.400
'24:06.461',-0.280,-0.405
'24:06.464',-0.290,-0.405
'24:06.467',-0.300,-0.425
'24:06.469',-0.305,-0.430
'24:06.472',-0.305,-0.440
'24:06.475',-0.310,-0.430
'24:06.478',-0.290,-0.420
'24:06.481',-0.275,-0.425
'24:06.483',-0.280,-0.415
'24:06.486',-0.265,-0.410
'24:06.489',-0.260,-0.410
'24:06.492',-0.260,-0.425
'24:06.494',-0.260,-0.425
'24:06.497',-0.265,-0.440
'24:06.500',-0.265,-0.445
'24:06.503',-0.280,-0.460
'24:06.506',-0.275,-0.455
'24:06.508',-0.285,-0.450
'24:06.511',-0.280,-0.440
'24:06.514',-0.265,-0.440
'24:06.517',-0.265,-0.430
'24:06.519',-0.265,-0.435
'24:06.522',-0.260,-0.435
'24:06.525',-0.265,-0.440
'24:06.528',-0.260,-0.450
'24:06.531',-0.255,-0.455
'24:06.533',-0.270,-0.470
'24:06.536',-0.265,-0.480
'24:06.539',-0.270,-0.480
'24:06.542',-0.265,-0.475
'24:06.544',-0.270,-0.470
'24:06.547',-0.265,-0.470
'24:06.550',-0.265,-0.465
'24:06.553',-0.255,-0.455
'24:06.556',-0.245,-0.470
'24:06.558',-0.245,-0.470
'24:06.561',-0.245,-0.490
'24:06.564',-0.250,-0.495
'24:06.567',-0.255,-0.500
'24:06.569',-0.255,-0.500
'24:06.572',-0.250,-0.505
'24:06.575',-0.245,-0.490
'24:06.578',-0.240,-0.510
'24:06.581',-0.210,-0.490
'24:06.583',-0.210,-0.485
'24:06.586',-0.200,-0.470
'24:06.589',-0.185,-0.485
'24:06.592',-0.175,-0.490
'24:06.594',-0.180,-0.500
'24:06.597',-0.175,-0.510
'24:06.600',-0.180,-0.505
'24:06.603',-0.180,-0.520
'24:06.606',-0.185,-0.520
'24:06.608',-0.185,-0.525
'24:06.611',-0.180,-0.510
'24:06.614',-0.180,-0.490
'24:06.617',-0.180,-0.500
'24:06.619',-0.170,-0.490
'24:06.622',-0.190,-0.485
'24:06.625',-0.190,-0.485
'24:06.628',-0.200,-0.490
'24:06.631',-0.210,-0.490
'24:06.633',-0.225,-0.505
'24:06.636',-0.250,-0.505
'24:06.639',-0.250,-0.495
'24:06.642',-0.275,-0.485
'24:06.644',-0.275,-0.480
'24:06.647',-0.275,-0.465
'24:06.650',-0.285,-0.445
'24:06.653',-0.285,-0.445
'24:06.656',-0.280,-0.435
'24:06.658',-0.285,-0.435
'24:06.661',-0.295,-0.445
'24:06.664',-0.290,-0.435
'24:06.667',-0.315,-0.450
'24:06.669',-0.320,-0.445
'24:06.672',-0.330,-0.440
'24:06.675',-0.340,-0.440
'24:06.678',-0.340,-0.435
'24:06.681',-0.320,-0.430
'24:06.683',-0.325,-0.420
'24:06.686',-0.335,-0.410
'24:06.689',-0.320,-0.415
'24:06.692',-0.310,-0.415
'24:06.694',-0.320,-0.425
'24:06.697',-0.320,-0.425
'24:06.700',-0.335,-0.435
'24:06.703',-0.340,-0.430
'24:06.706',-0.340,-0.435
'24:06.708',-0.345,-0.430
'24:06.711',-0.345,-0.420
'24:06.714',-0.340,-0.415
'24:06.717',-0.340,-0.415
'24:06.719',-0.340,-0.410
'24:06.722',-0.340,-0.415
'24:06.725',-0.345,-0.415
'24:06.728',-0.335,-0.415
'24:06.731',-0.350,-0.420
'24:06.733',-0.350,-0.430
'24:06.736',-0.350,-0.435
'24:06.739',-0.345,-0.435
'24:06.742',-0.355,-0.425
'24:06.744',-0.355,-0.420
'24:06.747',-0.350,-0.410
'24:06.750',-0.345,-0.410
'24:06.753',-0.340,-0.405
'24:06.756',-0.345,-0.410
'24:06.758',-0.340,-0.420
'24:06.761',-0.340,-0.420
'24:06.764',-0.350,-0.430
'24:06.767',-0.365,-0.435
'24:06.769',-0.365,-0.435
'24:06.772',-0.360,-0.440
'24:06.775',-0.370,-0.440
'24:06.778',-0.365,-0.435
'24:06.781',-0.355,-0.430
'24:06.783',-0.345,-0.420
'24:06.786',-0.350,-0.410
'24:06.789',-0.350,-0.415
'24:06.792',-0.345,-0.415
'24:06.794',-0.350,-0.415
'24:06.797',-0.360,-0.420
'24:06.800',-0.360,-0.430
'24:06.803',-0.370,-0.435
'24:06.806',-0.380,-0.450
'24:06.808',-0.380,-0.435
'24:06.811',-0.380,-0.430
'24:06.814',-0.380,-0.420
'24:06.817',-0.370,-0.420
'24:06.819',-0.360,-0.415
'24:06.822',-0.355,-0.410
'24:06.825',-0.360,-0.420
'24:06.828',-0.365,-0.410
'24:06.831',-0.365,-0.430
'24:06.833',-0.360,-0.435
'24:06.836',-0.365,-0.440
'24:06.839',-0.380,-0.450
'24:06.842',-0.380,-0.435
'24:06.844',-0.375,-0.430
'24:06.847',-0.380,-0.425
'24:06.850',-0.365,-0.420
'24:06.853',-0.365,-0.410
'24:06.856',-0.360,-0.420
'24:06.858',-0.350,-0.415
'24:06.861',-0.350,-0.425
'24:06.864',-0.345,-0.435
'24:06.867',-0.350,-0.435
'24:06.869',-0.345,-0.445
'24:06.872',-0.340,-0.440
'24:06.875',-0.340,-0.425
'24:06.878',-0.335,-0.420
'24:06.881',-0.325,-0.415
'24:06.883',-0.320,-0.400
'24:06.886',-0.315,-0.385
'24:06.889',-0.310,-0.385
'24:06.892',-0.305,-0.375
'24:06.894',-0.295,-0.390
'24:06.897',-0.275,-0.395
'24:06.900',-0.265,-0.425
'24:06.903',-0.270,-0.440
'24:06.906',-0.280,-0.450
'24:06.908',-0.305,-0.455
'24:06.911',-0.315,-0.460
'24:06.914',-0.315,-0.445
'24:06.917',-0.325,-0.445
'24:06.919',-0.315,-0.450
'24:06.922',-0.320,-0.450
'24:06.925',-0.315,-0.450
'24:06.928',-0.320,-0.450
'24:06.931',-0.330,-0.470
'24:06.933',-0.355,-0.470
'24:06.936',-0.345,-0.475
'24:06.939',-0.360,-0.465
'24:06.942',-0.370,-0.465
'24:06.944',-0.370,-0.450
'24:06.947',-0.380,-0.440
'24:06.950',-0.380,-0.425
'24:06.953',-0.375,-0.430
'24:06.956',-0.390,-0.420
'24:06.958',-0.380,-0.430
'24:06.961',-0.390,-0.435
'24:06.964',-0.400,-0.440
'24:06.967',-0.395,-0.450
'24:06.969',-0.395,-0.460
'24:06.972',-0.400,-0.455
'24:06.975',-0.400,-0.450
'24:06.978',-0.395,-0.450
'24:06.981',-0.380,-0.435
'24:06.983',-0.375,-0.445
'24:06.986',-0.360,-0.420
'24:06.989',-0.360,-0.430
'24:06.992',-0.365,-0.435
'24:06.994',-0.375,-0.435
'24:06.997',-0.380,-0.445
'24:07.000',-0.410,-0.460
'24:07.003',-0.430,-0.465
'24:07.006',-0.435,-0.465
'24:07.008',-0.420,-0.460
'24:07.011',-0.350,-0.455
'24:07.014',-0.245,-0.435
'24:07.017',-0.115,-0.435
'24:07.019',0.065,-0.430
'24:07.022',0.285,-0.460
'24:07.025',0.510,-0.505
'24:07.028',0.715,-0.550
'24:07.031',0.860,-0.610
'24:07.033',0.860,-0.655
'24:07.036',0.740,-0.685
'24:07.039',0.485,-0.680
'24:07.042',0.140,-0.635
'24:07.044',-0.170,-0.580
'24:07.047',-0.390,-0.510
'24:07.050',-0.495,-0.440
'24:07.053',-0.500,-0.375
'24:07.056',-0.430,-0.345
'24:07.058',-0.335,-0.365
'24:07.061',-0.300,-0.400
'24:07.064',-0.270,-0.445
'24:07.067',-0.270,-0.495
'24:07.069',-0.275,-0.515
'24:07.072',-0.305,-0.535
'24:07.075',-0.320,-0.525
'24:07.078',-0.335,-0.510
'24:07.081',-0.345,-0.480
'24:07.083',-0.345,-0.480
'24:07.086',-0.340,-0.470
'24:07.089',-0.335,-0.460
'24:07.092',-0.335,-0.460
'24:07.094',-0.340,-0.475
'24:07.097',-0.345,-0.475
'24:07.100',-0.365,-0.490
'24:07.103',-0.370,-0.485
'24:07.106',-0.370,-0.480
'24:07.108',-0.375,-0.475
'24:07.111',-0.365,-0.470
'24:07.114',-0.345,-0.470
'24:07.117',-0.345,-0.465
'24:07.119',-0.340,-0.445
'24:07.122',-0.340,-0.450
'24:07.125',-0.335,-0.460
'24:07.128',-0.335,-0.465
'24:07.131',-0.340,-0.465
'24:07.133',-0.345,-0.480
'24:07.136',-0.345,-0.485
'24:07.139',-0.355,-0.475
'24:07.142',-0.355,-0.480
'24:07.144',-0.355,-0.470
'24:07.147',-0.355,-0.470
'24:07.150',-0.340,-0.465
'24:07.153',-0.340,-0.470
'24:07.156',-0.325,-0.465
'24:07.158',-0.315,-0.475
'24:07.161',-0.320,-0.470
'24:07.164',-0.320,-0.480
'24:07.167',-0.320,-0.480
'24:07.169',-0.325,-0.485
'24:07.172',-0.335,-0.485
'24:07.175',-0.335,-0.495
'24:07.178',-0.330,-0.490
'24:07.181',-0.320,-0.480
'24:07.183',-0.320,-0.470
'24:07.186',-0.305,-0.470
'24:07.189',-0.305,-0.475
'24:07.192',-0.295,-0.465
'24:07.194',-0.295,-0.485
'24:07.197',-0.305,-0.490
'24:07.200',-0.310,-0.500
'24:07.203',-0.315,-0.520
'24:07.206',-0.325,-0.510
'24:07.208',-0.325,-0.505
'24:07.211',-0.330,-0.505
'24:07.214',-0.315,-0.500
'24:07.217',-0.305,-0.495
'24:07.219',-0.305,-0.490
'24:07.222',-0.295,-0.490
'24:07.225',-0.290,-0.500
'24:07.228',-0.295,-0.495
'24:07.231',-0.300,-0.500
'24:07.233',-0.305,-0.510
'24:07.236',-0.300,-0.525
'24:07.239',-0.305,-0.525
'24:07.242',-0.305,-0.530
'24:07.244',-0.300,-0.535
'24:07.247',-0.305,-0.525
'24:07.250',-0.280,-0.520
'24:07.253',-0.280,-0.520
'24:07.256',-0.280,-0.520
'24:07.258',-0.285,-0.530
'24:07.261',-0.280,-0.525
'24:07.264',-0.275,-0.540
'24:07.267',-0.280,-0.545
'24:07.269',-0.290,-0.555
'24:07.272',-0.295,-0.570
'24:07.275',-0.280,-0.560
'24:07.278',-0.285,-0.555
'24:07.281',-0.275,-0.550
'24:07.283',-0.265,-0.545
'24:07.286',-0.260,-0.535
'24:07.289',-0.245,-0.545
'24:07.292',-0.250,-0.545
'24:07.294',-0.245,-0.545
'24:07.297',-0.240,-0.560
'24:07.300',-0.240,-0.565
'24:07.303',-0.240,-0.580
'24:07.306',-0.245,-0.580
'24:07.308',-0.245,-0.580
'24:07.311',-0.230,-0.570
'24:07.314',-0.220,-0.565
'24:07.317',-0.200,-0.570
'24:07.319',-0.200,-0.565
'24:07.322',-0.195,-0.550
'24:07.325',-0.180,-0.565
'24:07.328',-0.185,-0.560
'24:07.331',-0.200,-0.565
'24:07.333',-0.215,-0.570
'24:07.336',-0.205,-0.580
'24:07.339',-0.225,-0.575
'24:07.342',-0.230,-0.575
'24:07.344',-0.230,-0.555
'24:07.347',-0.240,-0.555
'24:07.350',-0.240,-0.545
'24:07.353',-0.240,-0.540
'24:07.356',-0.245,-0.535
'24:07.358',-0.245,-0.530
'24:07.361',-0.250,-0.535
'24:07.364',-0.260,-0.535
'24:07.367',-0.275,-0.540
'24:07.369',-0.280,-0.545
'24:07.372',-0.290,-0.530
'24:07.375',-0.295,-0.525
'24:07.378',-0.305,-0.520
'24:07.381',-0.310,-0.510
'24:07.383',-0.310,-0.500
'24:07.386',-0.300,-0.495
'24:07.389',-0.310,-0.485
'24:07.392',-0.305,-0.485
'24:07.394',-0.300,-0.495
'24:07.397',-0.305,-0.495
'24:07.400',-0.320,-0.510
'24:07.403',-0.330,-0.500
'24:07.406',-0.335,-0.505
'24:07.408',-0.330,-0.495
'24:07.411',-0.330,-0.495
'24:07.414',-0.315,-0.485
'24:07.417',-0.330,-0.490
'24:07.419',-0.325,-0.465
'24:07.422',-0.325,-0.460
'24:07.425',-0.320,-0.465
'24:07.428',-0.320,-0.470
'24:07.431',-0.320,-0.480
'24:07.433',-0.320,-0.485
'24:07.436',-0.320,-0.490
'24:07.439',-0.330,-0.485
'24:07.442',-0.335,-0.495
'24:07.444',-0.335,-0.485
'24:07.447',-0.325,-0.475
'24:07.450',-0.315,-0.475
'24:07.453',-0.310,-0.465
'24:07.456',-0.310,-0.465
'24:07.458',-0.305,-0.475
'24:07.461',-0.310,-0.475
'24:07.464',-0.320,-0.485
'24:07.467',-0.330,-0.495
'24:07.469',-0.330,-0.500
'24:07.472',-0.345,-0.500
'24:07.475',-0.355,-0.500
'24:07.478',-0.355,-0.485
'24:07.481',-0.350,-0.490
'24:07.483',-0.340,-0.470
'24:07.486',-0.335,-0.460
'24:07.489',-0.335,-0.475
'24:07.492',-0.325,-0.475
'24:07.494',-0.330,-0.475
'24:07.497',-0.335,-0.480
'24:07.500',-0.345,-0.490
'24:07.503',-0.350,-0.500
'24:07.506',-0.350,-0.505
'24:07.508',-0.350,-0.490
'24:07.511',-0.340,-0.475
'24:07.514',-0.340,-0.485
'24:07.517',-0.350,-0.485
'24:07.519',-0.330,-0.475
'24:07.522',-0.330,-0.465
'24:07.525',-0.320,-0.485
'24:07.528',-0.325,-0.480
'24:07.531',-0.335,-0.480
'24:07.533',-0.345,-0.495
'24:07.536',-0.345,-0.500
'24:07.539',-0.350,-0.505
'24:07.542',-0.360,-0.500
'24:07.544',-0.350,-0.505
'24:07.547',-0.345,-0.490
'24:07.550',-0.340,-0.485
'24:07.553',-0.345,-0.470
'24:07.556',-0.330,-0.470
'24:07.558',-0.345,-0.485
'24:07.561',-0.330,-0.475
'24:07.564',-0.335,-0.490
'24:07.567',-0.340,-0.505
'24:07.569',-0.350,-0.505
'24:07.572',-0.355,-0.500
'24:07.575',-0.360,-0.495
'24:07.578',-0.355,-0.490
'24:07.581',-0.350,-0.475
'24:07.583',-0.340,-0.475
'24:07.586',-0.335,-0.465
'24:07.589',-0.315,-0.475
'24:07.592',-0.300,-0.475
'24:07.594',-0.300,-0.480
'24:07.597',-0.295,-0.485
'24:07.600',-0.305,-0.480
'24:07.603',-0.305,-0.475
'24:07.606',-0.315,-0.480
'24:07.608',-0.305,-0.475
'24:07.611',-0.310,-0.470
'24:07.614',-0.285,-0.450
'24:07.617',-0.275,-0.445
'24:07.619',-0.245,-0.445
'24:07.622',-0.250,-0.445
'24:07.625',-0.255,-0.470
'24:07.628',-0.255,-0.470
'24:07.631',-0.270,-0.495
'24:07.633',-0.290,-0.505
'24:07.636',-0.300,-0.515
'24:07.639',-0.315,-0.515
'24:07.642',-0.315,-0.530
'24:07.644',-0.310,-0.530
'24:07.647',-0.310,-0.500
'24:07.650',-0.315,-0.505
'24:07.653',-0.310,-0.485
'24:07.656',-0.310,-0.500
'24:07.658',-0.320,-0.500
'24:07.661',-0.330,-0.485
'24:07.664',-0.345,-0.500
'24:07.667',-0.360,-0.515
'24:07.669',-0.385,-0.505
'24:07.672',-0.390,-0.500
'24:07.675',-0.410,-0.495
'24:07.678',-0.400,-0.500
'24:07.681',-0.395,-0.485
'24:07.683',-0.375,-0.480
'24:07.686',-0.380,-0.470
'24:07.689',-0.365,-0.480
'24:07.692',-0.360,-0.475
'24:07.694',-0.365,-0.490
'24:07.697',-0.370,-0.480
'24:07.700',-0.380,-0.495
'24:07.703',-0.380,-0.505
'24:07.706',-0.375,-0.500
'24:07.708',-0.375,-0.500
'24:07.711',-0.385,-0.490
'24:07.714',-0.370,-0.490
'24:07.717',-0.365,-0.485
'24:07.719',-0.360,-0.470
'24:07.722',-0.360,-0.480
'24:07.725',-0.375,-0.490
'24:07.728',-0.410,-0.490
'24:07.731',-0.420,-0.485
'24:07.733',-0.420,-0.495
'24:07.736',-0.375,-0.490
'24:07.739',-0.285,-0.490
'24:07.742',-0.160,-0.485
'24:07.744',0.000,-0.485
'24:07.747',0.195,-0.490
'24:07.750',0.405,-0.525
'24:07.753',0.620,-0.560
'24:07.756',0.785,-0.600
'24:07.758',0.895,-0.645
'24:07.761',0.865,-0.680
'24:07.764',0.695,-0.685
'24:07.767',0.430,-0.680
'24:07.769',0.100,-0.635
'24:07.772',-0.185,-0.595
'24:07.775',-0.410,-0.540
'24:07.778',-0.495,-0.485
'24:07.781',-0.500,-0.445
'24:07.783',-0.430,-0.405
'24:07.786',-0.350,-0.410
'24:07.789',-0.280,-0.425
'24:07.792',-0.265,-0.460
'24:07.794',-0.255,-0.505
'24:07.797',-0.260,-0.535
'24:07.800',-0.270,-0.565
'24:07.803',-0.295,-0.560
'24:07.806',-0.300,-0.560
'24:07.808',-0.320,-0.540
'24:07.811',-0.315,-0.535
'24:07.814',-0.325,-0.515
'24:07.817',-0.325,-0.500
'24:07.819',-0.320,-0.495
'24:07.822',-0.310,-0.500
'24:07.825',-0.310,-0.500
'24:07.828',-0.315,-0.500
'24:07.831',-0.325,-0.505
'24:07.833',-0.335,-0.505
'24:07.836',-0.335,-0.510
'24:07.839',-0.335,-0.510
'24:07.842',-0.345,-0.510
'24:07.844',-0.330,-0.500
'24:07.847',-0.320,-0.490
'24:07.850',-0.325,-0.485
'24:07.853',-0.320,-0.480
'24:07.856',-0.310,-0.470
'24:07.858',-0.305,-0.480
'24:07.861',-0.310,-0.485
'24:07.864',-0.310,-0.495
'24:07.867',-0.310,-0.505
'24:07.869',-0.315,-0.505
'24:07.872',-0.320,-0.500
'24:07.875',-0.310,-0.495
'24:07.878',-0.315,-0.490
'24:07.881',-0.310,-0.480
'24:07.883',-0.300,-0.485
'24:07.886',-0.290,-0.480
'24:07.889',-0.285,-0.485
'24:07.892',-0.290,-0.485
'24:07.894',-0.280,-0.475
'24:07.897',-0.280,-0.490
'24:07.900',-0.285,-0.505
'24:07.903',-0.290,-0.510
'24:07.906',-0.295,-0.510
'24:07.908',-0.295,-0.505
'24:07.911',-0.295,-0.490
'24:07.914',-0.290,-0.495
'24:07.917',-0.285,-0.495
'24:07.919',-0.270,-0.480
'24:07.922',-0.260,-0.495
'24:07.925',-0.260,-0.485
'24:07.928',-0.250,-0.505
'24:07.931',-0.270,-0.505
'24:07.933',-0.270,-0.520
'24:07.936',-0.275,-0.520
'24:07.939',-0.280,-0.520
'24:07.942',-0.265,-0.525
'24:07.944',-0.270,-0.520
'24:07.947',-0.270,-0.510
'24:07.950',-0.265,-0.510
'24:07.953',-0.250,-0.505
'24:07.956',-0.235,-0.505
'24:07.958',-0.235,-0.515
'24:07.961',-0.255,-0.520
'24:07.964',-0.250,-0.525
'24:07.967',-0.260,-0.535
'24:07.969',-0.260,-0.540
'24:07.972',-0.270,-0.540
'24:07.975',-0.260,-0.545
'24:07.978',-0.255,-0.540
'24:07.981',-0.250,-0.530
'24:07.983',-0.245,-0.530
'24:07.986',-0.235,-0.520
'24:07.989',-0.230,-0.535
'24:07.992',-0.235,-0.530
'24:07.994',-0.230,-0.540
'24:07.997',-0.235,-0.545
'24:08.000',-0.230,-0.555
'24:08.003',-0.240,-0.560
'24:08.006',-0.240,-0.555
'24:08.008',-0.245,-0.560
'24:08.011',-0.235,-0.555
'24:08.014',-0.240,-0.560
'24:08.017',-0.240,-0.545
'24:08.019',-0.225,-0.545
'24:08.022',-0.215,-0.545
'24:08.025',-0.220,-0.535
'24:08.028',-0.210,-0.550
'24:08.031',-0.220,-0.560
'24:08.033',-0.225,-0.555
'24:08.036',-0.230,-0.585
'24:08.039',-0.220,-0.575
'24:08.042',-0.220,-0.570
'24:08.044',-0.200,-0.565
'24:08.047',-0.200,-0.560
'24:08.050',-0.190,-0.560
'24:08.053',-0.170,-0.560
'24:08.056',-0.150,-0.560
'24:08.058',-0.155,-0.555
'24:08.061',-0.150,-0.565
'24:08.064',-0.150,-0.555
'24:08.067',-0.155,-0.570
'24:08.069',-0.155,-0.575
'24:08.072',-0.160,-0.580
'24:08.075',-0.165,-0.570
'24:08.078',-0.165,-0.550
'24:08.081',-0.165,-0.560
'24:08.083',-0.160,-0.555
'24:08.086',-0.160,-0.545
'24:08.089',-0.165,-0.545
'24:08.092',-0.170,-0.540
'24:08.094',-0.180,-0.540
'24:08.097',-0.175,-0.540
'24:08.100',-0.205,-0.550
'24:08.103',-0.220,-0.545
'24:08.106',-0.230,-0.545
'24:08.108',-0.240,-0.535
'24:08.111',-0.235,-0.525
'24:08.114',-0.235,-0.520
'24:08.117',-0.240,-0.505
'24:08.119',-0.235,-0.495
'24:08.122',-0.240,-0.495
'24:08.125',-0.240,-0.500
'24:08.128',-0.240,-0.500
'24:08.131',-0.255,-0.495
'24:08.133',-0.265,-0.500
'24:08.136',-0.265,-0.510
'24:08.139',-0.270,-0.505
'24:08.142',-0.275,-0.505
'24:08.144',-0.275,-0.510
'24:08.147',-0.275,-0.500
'24:08.150',-0.270,-0.485
'24:08.153',-0.265,-0.480
'24:08.156',-0.265,-0.475
'24:08.158',-0.260,-0.475
'24:08.161',-0.260,-0.475
'24:08.164',-0.270,-0.480
'24:08.167',-0.275,-0.485
'24:08.169',-0.280,-0.495
'24:08.172',-0.285,-0.495
'24:08.175',-0.285,-0.500
'24:08.178',-0.285,-0.495
'24:08.181',-0.270,-0.475
'24:08.183',-0.275,-0.470
'24:08.186',-0.260,-0.470
'24:08.189',-0.270,-0.465
'24:08.192',-0.260,-0.470
'24:08.194',-0.275,-0.465
'24:08.197',-0.270,-0.470
'24:08.200',-0.275,-0.475
'24:08.203',-0.290,-0.485
'24:08.206',-0.300,-0.475
'24:08.208',-0.285,-0.485
'24:08.211',-0.295,-0.480
'24:08.214',-0.305,-0.465
'24:08.217',-0.300,-0.470
'24:08.219',-0.305,-0.460
'24:08.222',-0.295,-0.455
'24:08.225',-0.290,-0.475
'24:08.228',-0.290,-0.460
'24:08.231',-0.300,-0.475
'24:08.233',-0.295,-0.485
'24:08.236',-0.305,-0.490
'24:08.239',-0.305,-0.485
'24:08.242',-0.305,-0.485
'24:08.244',-0.305,-0.475
'24:08.247',-0.310,-0.475
'24:08.250',-0.300,-0.475
'24:08.253',-0.310,-0.450
'24:08.256',-0.295,-0.455
'24:08.258',-0.295,-0.465
'24:08.261',-0.290,-0.465
'24:08.264',-0.295,-0.460
'24:08.267',-0.300,-0.480
'24:08.269',-0.310,-0.475
'24:08.272',-0.310,-0.480
'24:08.275',-0.310,-0.485
'24:08.278',-0.310,-0.470
'24:08.281',-0.305,-0.460
'24:08.283',-0.300,-0.465
'24:08.286',-0.300,-0.450
'24:08.289',-0.280,-0.450
'24:08.292',-0.295,-0.455
'24:08.294',-0.290,-0.460
'24:08.297',-0.290,-0.475
'24:08.300',-0.295,-0.470
'24:08.303',-0.305,-0.470
'24:08.306',-0.305,-0.475
'24:08.308',-0.315,-0.475
'24:08.311',-0.315,-0.465
'24:08.314',-0.300,-0.450
'24:08.317',-0.310,-0.455
'24:08.319',-0.300,-0.440
'24:08.322',-0.290,-0.445
'24:08.325',-0.300,-0.445
'24:08.328',-0.290,-0.455
'24:08.331',-0.295,-0.460
'24:08.333',-0.295,-0.465
'24:08.336',-0.305,-0.475
'24:08.339',-0.300,-0.475
'24:08.342',-0.295,-0.475
'24:08.344',-0.280,-0.470
'24:08.347',-0.265,-0.455
'24:08.350',-0.250,-0.445
'24:08.353',-0.240,-0.440
'24:08.356',-0.225,-0.430
'24:08.358',-0.230,-0.430
'24:08.361',-0.235,-0.425
'24:08.364',-0.230,-0.435
'24:08.367',-0.230,-0.440
'24:08.369',-0.230,-0.440
'24:08.372',-0.220,-0.440
'24:08.375',-0.215,-0.450
'24:08.378',-0.210,-0.465
'24:08.381',-0.210,-0.455
'24:08.383',-0.215,-0.465
'24:08.386',-0.225,-0.470
'24:08.389',-0.240,-0.470
'24:08.392',-0.250,-0.485
'24:08.394',-0.255,-0.475
'24:08.397',-0.260,-0.495
'24:08.400',-0.260,-0.500
'24:08.403',-0.265,-0.490
'24:08.406',-0.270,-0.500
'24:08.408',-0.290,-0.485
'24:08.411',-0.300,-0.485
'24:08.414',-0.285,-0.465
'24:08.417',-0.290,-0.470
'24:08.419',-0.275,-0.460
'24:08.422',-0.280,-0.455
'24:08.425',-0.280,-0.470
'24:08.428',-0.295,-0.460
'24:08.431',-0.300,-0.470
'24:08.433',-0.325,-0.475
'24:08.436',-0.330,-0.465
'24:08.439',-0.330,-0.460
'24:08.442',-0.335,-0.470
'24:08.444',-0.330,-0.455
'24:08.447',-0.330,-0.460
'24:08.450',-0.325,-0.450
'24:08.453',-0.315,-0.450
'24:08.456',-0.305,-0.445
'24:08.458',-0.305,-0.455
'24:08.461',-0.300,-0.455
'24:08.464',-0.310,-0.460
'24:08.467',-0.315,-0.455
'24:08.469',-0.315,-0.480
'24:08.472',-0.320,-0.475
'24:08.475',-0.320,-0.480
'24:08.478',-0.325,-0.470
'24:08.481',-0.335,-0.460
'24:08.483',-0.350,-0.460
'24:08.486',-0.350,-0.450
'24:08.489',-0.340,-0.430
'24:08.492',-0.305,-0.445
'24:08.494',-0.220,-0.430
'24:08.497',-0.105,-0.435
'24:08.500',0.040,-0.450
'24:08.503',0.235,-0.480
'24:08.506',0.450,-0.530
'24:08.508',0.660,-0.560
'24:08.511',0.825,-0.615
'24:08.514',0.895,-0.635
'24:08.517',0.825,-0.665
'24:08.519',0.605,-0.640
'24:08.522',0.280,-0.615
'24:08.525',-0.040,-0.565
'24:08.528',-0.295,-0.510
'24:08.531',-0.430,-0.455
'24:08.533',-0.440,-0.415
'24:08.536',-0.370,-0.410
'24:08.539',-0.280,-0.430
'24:08.542',-0.220,-0.480
'24:08.544',-0.205,-0.510
'24:08.547',-0.190,-0.530
'24:08.550',-0.200,-0.540
'24:08.553',-0.225,-0.520
'24:08.556',-0.245,-0.505
'24:08.558',-0.255,-0.490
'24:08.561',-0.275,-0.475
'24:08.564',-0.280,-0.480
'24:08.567',-0.285,-0.475
'24:08.569',-0.275,-0.480
'24:08.572',-0.285,-0.485
'24:08.575',-0.290,-0.465
'24:08.578',-0.300,-0.465
'24:08.581',-0.290,-0.460
'24:08.583',-0.290,-0.450
'24:08.586',-0.285,-0.450
'24:08.589',-0.280,-0.450
'24:08.592',-0.275,-0.455
'24:08.594',-0.280,-0.450
'24:08.597',-0.275,-0.455
'24:08.600',-0.285,-0.470
'24:08.603',-0.290,-0.475
'24:08.606',-0.285,-0.475
'24:08.608',-0.305,-0.470
'24:08.611',-0.305,-0.465
'24:08.614',-0.305,-0.460
'24:08.617',-0.280,-0.450
'24:08.619',-0.270,-0.445
'24:08.622',-0.265,-0.445
'24:08.625',-0.275,-0.450
'24:08.628',-0.280,-0.450
'24:08.631',-0.270,-0.465
'24:08.633',-0.280,-0.470
'24:08.636',-0.285,-0.485
'24:08.639',-0.275,-0.475
'24:08.642',-0.290,-0.475
'24:08.644',-0.295,-0.470
'24:08.647',-0.280,-0.475
'24:08.650',-0.275,-0.460
'24:08.653',-0.275,-0.455
'24:08.656',-0.265,-0.450
'24:08.658',-0.265,-0.450
'24:08.661',-0.260,-0.455
'24:08.664',-0.250,-0.460
'24:08.667',-0.265,-0.475
'24:08.669',-0.265,-0.495
'24:08.672',-0.260,-0.495
'24:08.675',-0.270,-0.475
'24:08.678',-0.265,-0.480
'24:08.681',-0.265,-0.480
'24:08.683',-0.260,-0.475
'24:08.686',-0.250,-0.470
'24:08.689',-0.240,-0.460
'24:08.692',-0.245,-0.470
'24:08.694',-0.245,-0.470
'24:08.697',-0.245,-0.480
'24:08.700',-0.250,-0.500
'24:08.703',-0.265,-0.495
'24:08.706',-0.255,-0.500
'24:08.708',-0.255,-0.500
'24:08.711',-0.270,-0.485
'24:08.714',-0.260,-0.485
'24:08.717',-0.250,-0.485
'24:08.719',-0.250,-0.470
'24:08.722',-0.235,-0.475
'24:08.725',-0.235,-0.495
'24:08.728',-0.230,-0.490
'24:08.731',-0.235,-0.495
'24:08.733',-0.235,-0.505
'24:08.736',-0.240,-0.510
'24:08.739',-0.245,-0.515
'24:08.742',-0.250,-0.515
'24:08.744',-0.245,-0.515
'24:08.747',-0.240,-0.525
'24:08.750',-0.235,-0.505
'24:08.753',-0.225,-0.495
'24:08.756',-0.220,-0.500
'24:08.758',-0.220,-0.510
'24:08.761',-0.220,-0.510
'24:08.764',-0.220,-0.520
'24:08.767',-0.220,-0.525
'24:08.769',-0.230,-0.545
'24:08.772',-0.230,-0.540
'24:08.775',-0.230,-0.520
'24:08.778',-0.225,-0.535
'24:08.781',-0.210,-0.525
'24:08.783',-0.195,-0.520
'24:08.786',-0.190,-0.510
'24:08.789',-0.170,-0.505
'24:08.792',-0.165,-0.525
'24:08.794',-0.160,-0.525
'24:08.797',-0.155,-0.530
'24:08.800',-0.150,-0.540
'24:08.803',-0.155,-0.550
'24:08.806',-0.155,-0.550
'24:08.808',-0.165,-0.550
'24:08.811',-0.165,-0.550
'24:08.814',-0.160,-0.540
'24:08.817',-0.155,-0.530
'24:08.819',-0.155,-0.530
'24:08.822',-0.155,-0.520
'24:08.825',-0.155,-0.530
'24:08.828',-0.165,-0.515
'24:08.831',-0.175,-0.530
'24:08.833',-0.185,-0.530
'24:08.836',-0.215,-0.535
'24:08.839',-0.220,-0.535
'24:08.842',-0.225,-0.520
'24:08.844',-0.230,-0.520
'24:08.847',-0.230,-0.500
'24:08.850',-0.230,-0.500
'24:08.853',-0.235,-0.490
'24:08.856',-0.230,-0.475
'24:08.858',-0.240,-0.480
'24:08.861',-0.245,-0.475
'24:08.864',-0.250,-0.475
'24:08.867',-0.255,-0.485
'24:08.869',-0.265,-0.485
'24:08.872',-0.280,-0.485
'24:08.875',-0.285,-0.480
'24:08.878',-0.290,-0.470
'24:08.881',-0.290,-0.465
'24:08.883',-0.285,-0.455
'24:08.886',-0.275,-0.450
'24:08.889',-0.270,-0.440
'24:08.892',-0.265,-0.460
'24:08.894',-0.270,-0.455
'24:08.897',-0.280,-0.455
'24:08.900',-0.280,-0.460
'24:08.903',-0.285,-0.470
'24:08.906',-0.290,-0.470
'24:08.908',-0.300,-0.460
'24:08.911',-0.310,-0.465
'24:08.914',-0.295,-0.450
'24:08.917',-0.290,-0.450
'24:08.919',-0.295,-0.440
'24:08.922',-0.285,-0.440
'24:08.925',-0.295,-0.440
'24:08.928',-0.275,-0.435
'24:08.931',-0.285,-0.445
'24:08.933',-0.290,-0.455
'24:08.936',-0.295,-0.475
'24:08.939',-0.320,-0.475
'24:08.942',-0.330,-0.470
'24:08.944',-0.315,-0.465
'24:08.947',-0.310,-0.455
'24:08.950',-0.300,-0.455
'24:08.953',-0.300,-0.440
'24:08.956',-0.295,-0.435
'24:08.958',-0.290,-0.430
'24:08.961',-0.300,-0.440
'24:08.964',-0.305,-0.445
'24:08.967',-0.300,-0.460
'24:08.969',-0.315,-0.470
'24:08.972',-0.325,-0.465
'24:08.975',-0.320,-0.465
'24:08.978',-0.320,-0.470
'24:08.981',-0.320,-0.455
'24:08.983',-0.310,-0.450
'24:08.986',-0.315,-0.440
'24:08.989',-0.305,-0.435
'24:08.992',-0.300,-0.445
'24:08.994',-0.300,-0.445
'24:08.997',-0.305,-0.450
'24:09.000',-0.315,-0.460
'24:09.003',-0.320,-0.460
'24:09.006',-0.325,-0.460
'24:09.008',-0.325,-0.470
'24:09.011',-0.335,-0.460
'24:09.014',-0.330,-0.455
'24:09.017',-0.320,-0.445
'24:09.019',-0.310,-0.435
'24:09.022',-0.310,-0.440
'24:09.025',-0.300,-0.440
'24:09.028',-0.300,-0.440
'24:09.031',-0.305,-0.440
'24:09.033',-0.320,-0.460
'24:09.036',-0.320,-0.460
'24:09.039',-0.325,-0.465
'24:09.042',-0.330,-0.455
'24:09.044',-0.330,-0.450
'24:09.047',-0.320,-0.460
'24:09.050',-0.320,-0.440
'24:09.053',-0.320,-0.435
'24:09.056',-0.320,-0.435
'24:09.058',-0.310,-0.435
'24:09.061',-0.300,-0.435
'24:09.064',-0.305,-0.445
'24:09.067',-0.300,-0.440
'24:09.069',-0.305,-0.460
'24:09.072',-0.295,-0.460
'24:09.075',-0.280,-0.460
'24:09.078',-0.280,-0.440
'24:09.081',-0.270,-0.440
'24:09.083',-0.265,-0.425
'24:09.086',-0.260,-0.405
'24:09.089',-0.250,-0.410
'24:09.092',-0.250,-0.405
'24:09.094',-0.235,-0.405
'24:09.097',-0.225,-0.415
'24:09.100',-0.215,-0.425
'24:09.103',-0.230,-0.445
'24:09.106',-0.235,-0.460
'24:09.108',-0.250,-0.465
'24:09.111',-0.270,-0.485
'24:09.114',-0.265,-0.480
'24:09.117',-0.270,-0.470
'24:09.119',-0.265,-0.465
'24:09.122',-0.260,-0.465
'24:09.125',-0.260,-0.475
'24:09.128',-0.255,-0.460
'24:09.131',-0.265,-0.470
'24:09.133',-0.275,-0.480
'24:09.136',-0.285,-0.485
'24:09.139',-0.295,-0.490
'24:09.142',-0.310,-0.475
'24:09.144',-0.305,-0.465
'24:09.147',-0.305,-0.455
'24:09.150',-0.305,-0.445
'24:09.153',-0.310,-0.440
'24:09.156',-0.315,-0.420
'24:09.158',-0.315,-0.435
'24:09.161',-0.315,-0.425
'24:09.164',-0.315,-0.430
'24:09.167',-0.320,-0.440
'24:09.169',-0.330,-0.445
'24:09.172',-0.335,-0.465
'24:09.175',-0.335,-0.460
'24:09.178',-0.335,-0.455
'24:09.181',-0.335,-0.455
'24:09.183',-0.325,-0.435
'24:09.186',-0.320,-0.425
'24:09.189',-0.305,-0.425
'24:09.192',-0.320,-0.435
'24:09.194',-0.310,-0.425
'24:09.197',-0.310,-0.435
'24:09.200',-0.320,-0.455
'24:09.203',-0.335,-0.450
'24:09.206',-0.345,-0.460
'24:09.208',-0.365,-0.455
'24:09.211',-0.395,-0.455
'24:09.214',-0.395,-0.445
'24:09.217',-0.365,-0.425
'24:09.219',-0.295,-0.410
'24:09.222',-0.205,-0.405
'24:09.225',-0.085,-0.415
'24:09.228',0.055,-0.415
'24:09.231',0.230,-0.465
'24:09.233',0.415,-0.495
'24:09.236',0.595,-0.545
'24:09.239',0.765,-0.605
'24:09.242',0.855,-0.640
'24:09.244',0.825,-0.665
'24:09.247',0.645,-0.665
'24:09.250',0.380,-0.630
'24:09.253',0.080,-0.590
'24:09.256',-0.185,-0.530
'24:09.258',-0.360,-0.480
'24:09.261',-0.420,-0.420
'24:09.264',-0.400,-0.390
'24:09.267',-0.340,-0.390
'24:09.269',-0.270,-0.415
'24:09.272',-0.225,-0.465
'24:09.275',-0.215,-0.490
'24:09.278',-0.220,-0.520
'24:09.281',-0.225,-0.530
'24:09.283',-0.245,-0.510
'24:09.286',-0.265,-0.500
'24:09.289',-0.265,-0.475
'24:09.292',-0.280,-0.480
'24:09.294',-0.275,-0.460
'24:09.297',-0.285,-0.460
'24:09.300',-0.290,-0.465
'24:09.303',-0.305,-0.480
'24:09.306',-0.300,-0.480
'24:09.308',-0.300,-0.465
'24:09.311',-0.315,-0.470
'24:09.314',-0.305,-0.450
'24:09.317',-0.300,-0.445
'24:09.319',-0.305,-0.440
'24:09.322',-0.290,-0.440
'24:09.325',-0.285,-0.440
'24:09.328',-0.285,-0.430
'24:09.331',-0.295,-0.440
'24:09.333',-0.305,-0.450
'24:09.336',-0.305,-0.465
'24:09.339',-0.310,-0.465
'24:09.342',-0.315,-0.450
'24:09.344',-0.320,-0.445
'24:09.347',-0.305,-0.450
'24:09.350',-0.305,-0.430
'24:09.353',-0.285,-0.440
'24:09.356',-0.285,-0.435
'24:09.358',-0.285,-0.450
'24:09.361',-0.275,-0.440
'24:09.364',-0.280,-0.440
'24:09.367',-0.280,-0.455
'24:09.369',-0.300,-0.460
'24:09.372',-0.295,-0.470
'24:09.375',-0.290,-0.475
'24:09.378',-0.290,-0.465
'24:09.381',-0.280,-0.460
'24:09.383',-0.275,-0.445
'24:09.386',-0.270,-0.450
'24:09.389',-0.260,-0.450
'24:09.392',-0.260,-0.440
'24:09.394',-0.255,-0.460
'24:09.397',-0.255,-0.460
'24:09.400',-0.260,-0.465
'24:09.403',-0.270,-0.475
'24:09.406',-0.270,-0.475
'24:09.408',-0.270,-0.475
'24:09.411',-0.270,-0.475
'24:09.414',-0.265,-0.475
'24:09.417',-0.255,-0.470
'24:09.419',-0.250,-0.470
'24:09.422',-0.235,-0.465
'24:09.425',-0.240,-0.465
'24:09.428',-0.230,-0.470
'24:09.431',-0.240,-0.470
'24:09.433',-0.250,-0.490
'24:09.436',-0.255,-0.500
'24:09.439',-0.260,-0.500
'24:09.442',-0.260,-0.490
'24:09.444',-0.255,-0.490
'24:09.447',-0.240,-0.485
'24:09.450',-0.235,-0.485
'24:09.453',-0.225,-0.480
'24:09.456',-0.225,-0.475
'24:09.458',-0.225,-0.485
'24:09.461',-0.215,-0.485
'24:09.464',-0.215,-0.490
'24:09.467',-0.220,-0.510
'24:09.469',-0.235,-0.510
'24:09.472',-0.235,-0.510
'24:09.475',-0.235,-0.525
'24:09.478',-0.235,-0.515
'24:09.481',-0.240,-0.510
'24:09.483',-0.230,-0.505
'24:09.486',-0.225,-0.500
'24:09.489',-0.225,-0.495
'24:09.492',-0.210,-0.505
'24:09.494',-0.215,-0.505
'24:09.497',-0.210,-0.510
'24:09.500',-0.215,-0.515
'24:09.503',-0.215,-0.525
'24:09.506',-0.220,-0.525
'24:09.508',-0.215,-0.525
'24:09.511',-0.225,-0.525
'24:09.514',-0.210,-0.520
'24:09.517',-0.205,-0.515
'24:09.519',-0.175,-0.505
'24:09.522',-0.160,-0.505
'24:09.525',-0.160,-0.505
'24:09.528',-0.150,-0.510
'24:09.531',-0.160,-0.525
'24:09.533',-0.165,-0.525
'24:09.536',-0.170,-0.535
'24:09.539',-0.170,-0.535
'24:09.542',-0.190,-0.530
'24:09.544',-0.180,-0.535
'24:09.547',-0.180,-0.520
'24:09.550',-0.175,-0.505
'24:09.553',-0.180,-0.500
'24:09.556',-0.180,-0.505
'24:09.558',-0.185,-0.495
'24:09.561',-0.190,-0.500
'24:09.564',-0.195,-0.500
'24:09.567',-0.215,-0.505
'24:09.569',-0.225,-0.515
'24:09.572',-0.245,-0.515
'24:09.575',-0.250,-0.500
'24:09.578',-0.265,-0.485
'24:09.581',-0.260,-0.475
'24:09.583',-0.265,-0.460
'24:09.586',-0.260,-0.465
'24:09.589',-0.265,-0.460
'24:09.592',-0.270,-0.445
'24:09.594',-0.270,-0.445
'24:09.597',-0.270,-0.460
'24:09.600',-0.285,-0.460
'24:09.603',-0.300,-0.470
'24:09.606',-0.300,-0.460
'24:09.608',-0.305,-0.455
'24:09.611',-0.315,-0.460
'24:09.614',-0.315,-0.455
'24:09.617',-0.300,-0.440
'24:09.619',-0.300,-0.430
'24:09.622',-0.300,-0.425
'24:09.625',-0.290,-0.430
'24:09.628',-0.300,-0.435
'24:09.631',-0.290,-0.435
'24:09.633',-0.300,-0.445
'24:09.636',-0.315,-0.450
'24:09.639',-0.310,-0.465
'24:09.642',-0.320,-0.455
'24:09.644',-0.325,-0.440
'24:09.647',-0.330,-0.440
'24:09.650',-0.315,-0.445
'24:09.653',-0.310,-0.425
'24:09.656',-0.300,-0.425
'24:09.658',-0.295,-0.425
'24:09.661',-0.295,-0.425
'24:09.664',-0.310,-0.440
'24:09.667',-0.315,-0.440
'24:09.669',-0.325,-0.450
'24:09.672',-0.320,-0.455
'24:09.675',-0.330,-0.450
'24:09.678',-0.340,-0.455
'24:09.681',-0.320,-0.435
'24:09.683',-0.320,-0.440
'24:09.686',-0.325,-0.435
'24:09.689',-0.315,-0.425
'24:09.692',-0.315,-0.435
'24:09.694',-0.315,-0.425
'24:09.697',-0.315,-0.440
'24:09.700',-0.320,-0.450
'24:09.703',-0.330,-0.455
'24:09.706',-0.340,-0.455
'24:09.708',-0.345,-0.460
'24:09.711',-0.345,-0.450
'24:09.714',-0.335,-0.435
'24:09.717',-0.330,-0.430
'24:09.719',-0.325,-0.430
'24:09.722',-0.325,-0.430
'24:09.725',-0.315,-0.425
'24:09.728',-0.320,-0.420
'24:09.731',-0.330,-0.435
'24:09.733',-0.330,-0.445
'24:09.736',-0.330,-0.440
'24:09.739',-0.345,-0.450
'24:09.742',-0.345,-0.445
'24:09.744',-0.345,-0.440
'24:09.747',-0.340,-0.450
'24:09.750',-0.350,-0.425
'24:09.753',-0.325,-0.415
'24:09.756',-0.325,-0.425
'24:09.758',-0.325,-0.425
'24:09.761',-0.315,-0.415
'24:09.764',-0.320,-0.425
'24:09.767',-0.325,-0.435
'24:09.769',-0.335,-0.430
'24:09.772',-0.335,-0.445
'24:09.775',-0.340,-0.450
'24:09.778',-0.340,-0.445
'24:09.781',-0.325,-0.430
'24:09.783',-0.315,-0.425
'24:09.786',-0.305,-0.425
'24:09.789',-0.285,-0.410
'24:09.792',-0.280,-0.420
'24:09.794',-0.265,-0.410
'24:09.797',-0.275,-0.420
'24:09.800',-0.270,-0.425
'24:09.803',-0.290,-0.425
'24:09.806',-0.290,-0.425
'24:09.808',-0.295,-0.420
'24:09.811',-0.280,-0.420
'24:09.814',-0.250,-0.400
'24:09.817',-0.235,-0.415
'24:09.819',-0.230,-0.410
'24:09.822',-0.235,-0.430
'24:09.825',-0.250,-0.445
'24:09.828',-0.260,-0.455
'24:09.831',-0.270,-0.470
'24:09.833',-0.290,-0.475
'24:09.836',-0.285,-0.490
'24:09.839',-0.295,-0.480
'24:09.842',-0.295,-0.470
'24:09.844',-0.305,-0.460
'24:09.847',-0.305,-0.450
'24:09.850',-0.300,-0.450
'24:09.853',-0.300,-0.445
'24:09.856',-0.295,-0.445
'24:09.858',-0.310,-0.445
'24:09.861',-0.315,-0.445
'24:09.864',-0.325,-0.445
'24:09.867',-0.340,-0.450
'24:09.869',-0.355,-0.455
'24:09.872',-0.370,-0.455
'24:09.875',-0.370,-0.450
'24:09.878',-0.375,-0.440
'24:09.881',-0.365,-0.445
'24:09.883',-0.355,-0.435
'24:09.886',-0.350,-0.435
'24:09.889',-0.345,-0.425
'24:09.892',-0.340,-0.420
'24:09.894',-0.345,-0.430
'24:09.897',-0.340,-0.435
'24:09.900',-0.345,-0.450
'24:09.903',-0.355,-0.450
'24:09.906',-0.345,-0.455
'24:09.908',-0.360,-0.450
'24:09.911',-0.365,-0.450
'24:09.914',-0.375,-0.440
'24:09.917',-0.385,-0.435
'24:09.919',-0.400,-0.430
'24:09.922',-0.390,-0.420
'24:09.925',-0.355,-0.410
'24:09.928',-0.265,-0.405
'24:09.931',-0.165,-0.410
'24:09.933',-0.035,-0.420
'24:09.936',0.130,-0.460
'24:09.939',0.310,-0.490
'24:09.942',0.510,-0.530
'24:09.944',0.695,-0.585
'24:09.947',0.815,-0.620
'24:09.950',0.840,-0.660
'24:09.953',0.705,-0.660
'24:09.956',0.450,-0.630
'24:09.958',0.140,-0.605
'24:09.961',-0.165,-0.545
'24:09.964',-0.380,-0.485
'24:09.967',-0.485,-0.435
'24:09.969',-0.470,-0.400
'24:09.972',-0.400,-0.385
'24:09.975',-0.330,-0.395
'24:09.978',-0.275,-0.430
'24:09.981',-0.245,-0.465
'24:09.983',-0.245,-0.490
'24:09.986',-0.260,-0.500
'24:09.989',-0.270,-0.505
'24:09.992',-0.270,-0.500
'24:09.994',-0.290,-0.480
'24:09.997',-0.295,-0.470
'24:10.000',-0.315,-0.465
'24:10.003',-0.320,-0.460
'24:10.006',-0.325,-0.475
'24:10.008',-0.330,-0.460
'24:10.011',-0.340,-0.460
'24:10.014',-0.325,-0.465
'24:10.017',-0.335,-0.440
'24:10.019',-0.325,-0.430
'24:10.022',-0.320,-0.415
'24:10.025',-0.315,-0.430
'24:10.028',-0.315,-0.425
'24:10.031',-0.315,-0.430
'24:10.033',-0.320,-0.440
'24:10.036',-0.335,-0.450
'24:10.039',-0.340,-0.450
'24:10.042',-0.340,-0.450
'24:10.044',-0.330,-0.450
'24:10.047',-0.340,-0.440
'24:10.050',-0.325,-0.430
'24:10.053',-0.315,-0.430
'24:10.056',-0.310,-0.425
'24:10.058',-0.315,-0.420
'24:10.061',-0.310,-0.430
'24:10.064',-0.310,-0.430
'24:10.067',-0.315,-0.440
'24:10.069',-0.320,-0.465
'24:10.072',-0.320,-0.465
'24:10.075',-0.330,-0.460
'24:10.078',-0.325,-0.450
'24:10.081',-0.315,-0.445
'24:10.083',-0.310,-0.435
'24:10.086',-0.315,-0.430
'24:10.089',-0.300,-0.425
'24:10.092',-0.290,-0.440
'24:10.094',-0.285,-0.445
'24:10.097',-0.295,-0.455
'24:10.100',-0.315,-0.455
'24:10.103',-0.320,-0.455
'24:10.106',-0.325,-0.455
'24:10.108',-0.310,-0.465
'24:10.111',-0.315,-0.465
'24:10.114',-0.305,-0.450
'24:10.117',-0.300,-0.460
'24:10.119',-0.290,-0.450
'24:10.122',-0.285,-0.450
'24:10.125',-0.285,-0.455
'24:10.128',-0.290,-0.450
'24:10.131',-0.285,-0.475
'24:10.133',-0.295,-0.465
'24:10.136',-0.290,-0.475
'24:10.139',-0.290,-0.495
'24:10.142',-0.300,-0.490
'24:10.144',-0.305,-0.495
'24:10.147',-0.300,-0.485
'24:10.150',-0.300,-0.485
'24:10.153',-0.290,-0.485
'24:10.156',-0.280,-0.465
'24:10.158',-0.265,-0.470
'24:10.161',-0.255,-0.490
'24:10.164',-0.270,-0.490
'24:10.167',-0.270,-0.505
'24:10.169',-0.275,-0.510
'24:10.172',-0.275,-0.510
'24:10.175',-0.275,-0.505
'24:10.178',-0.285,-0.520
'24:10.181',-0.285,-0.510
'24:10.183',-0.270,-0.510
'24:10.186',-0.260,-0.495
'24:10.189',-0.260,-0.495
'24:10.192',-0.250,-0.500
'24:10.194',-0.255,-0.495
'24:10.197',-0.245,-0.510
'24:10.200',-0.265,-0.520
'24:10.203',-0.255,-0.525
'24:10.206',-0.265,-0.540
'24:10.208',-0.265,-0.525
'24:10.211',-0.265,-0.535
'24:10.214',-0.245,-0.530
'24:10.217',-0.235,-0.525
'24:10.219',-0.235,-0.525
'24:10.222',-0.225,-0.515
'24:10.225',-0.210,-0.515
'24:10.228',-0.205,-0.525
'24:10.231',-0.200,-0.535
'24:10.233',-0.200,-0.535
'24:10.236',-0.195,-0.545
'24:10.239',-0.195,-0.550
'24:10.242',-0.200,-0.555
'24:10.244',-0.205,-0.545
'24:10.247',-0.195,-0.550
'24:10.250',-0.190,-0.540
'24:10.253',-0.190,-0.525
'24:10.256',-0.185,-0.520
'24:10.258',-0.190,-0.520
'24:10.261',-0.190,-0.525
'24:10.264',-0.205,-0.535
'24:10.267',-0.215,-0.530
'24:10.269',-0.235,-0.540
'24:10.272',-0.235,-0.520
'24:10.275',-0.255,-0.530
'24:10.278',-0.265,-0.525
'24:10.281',-0.275,-0.515
'24:10.283',-0.260,-0.495
'24:10.286',-0.265,-0.490
'24:10.289',-0.270,-0.480
'24:10.292',-0.270,-0.485
'24:10.294',-0.275,-0.480
'24:10.297',-0.295,-0.480
'24:10.300',-0.295,-0.500
'24:10.303',-0.310,-0.505
'24:10.306',-0.310,-0.500
'24:10.308',-0.310,-0.495
'24:10.311',-0.325,-0.485
'24:10.314',-0.320,-0.470
'24:10.317',-0.315,-0.465
'24:10.319',-0.315,-0.460
'24:10.322',-0.310,-0.450
'24:10.325',-0.310,-0.450
'24:10.328',-0.305,-0.460
'24:10.331',-0.320,-0.465
'24:10.333',-0.325,-0.465
'24:10.336',-0.325,-0.470
'24:10.339',-0.335,-0.470
'24:10.342',-0.335,-0.480
'24:10.344',-0.345,-0.470
'24:10.347',-0.345,-0.460
'24:10.350',-0.330,-0.460
'24:10.353',-0.325,-0.455
'24:10.356',-0.330,-0.440
'24:10.358',-0.320,-0.450
'24:10.361',-0.315,-0.455
'24:10.364',-0.320,-0.455
'24:10.367',-0.335,-0.460
'24:10.369',-0.330,-0.485
'24:10.372',-0.350,-0.470
'24:10.375',-0.355,-0.460
'24:10.378',-0.365,-0.465
'24:10.381',-0.355,-0.460
'24:10.383',-0.350,-0.465
'24:10.386',-0.335,-0.445
'24:10.389',-0.330,-0.435
'24:10.392',-0.330,-0.435
'24:10.394',-0.335,-0.450
'24:10.397',-0.335,-0.450
'24:10.400',-0.350,-0.460
'24:10.403',-0.350,-0.470
'24:10.406',-0.365,-0.470
'24:10.408',-0.365,-0.470
'24:10.411',-0.365,-0.465
'24:10.414',-0.365,-0.465
'24:10.417',-0.355,-0.455
'24:10.419',-0.355,-0.445
'24:10.422',-0.350,-0.435
'24:10.425',-0.350,-0.435
'24:10.428',-0.350,-0.445
'24:10.431',-0.355,-0.445
'24:10.433',-0.350,-0.465
'24:10.436',-0.365,-0.465
'24:10.439',-0.370,-0.475
'24:10.442',-0.375,-0.465
'24:10.444',-0.380,-0.470
'24:10.447',-0.380,-0.460
'24:10.450',-0.375,-0.450
'24:10.453',-0.380,-0.455
'24:10.456',-0.360,-0.440
'24:10.458',-0.365,-0.445
'24:10.461',-0.350,-0.445
'24:10.464',-0.365,-0.455
'24:10.467',-0.375,-0.460
'24:10.469',-0.380,-0.460
'24:10.472',-0.385,-0.465
'24:10.475',-0.380,-0.470
'24:10.478',-0.380,-0.465
'24:10.481',-0.380,-0.455
'24:10.483',-0.380,-0.450
'24:10.486',-0.375,-0.440
'24:10.489',-0.375,-0.430
'24:10.492',-0.365,-0.440
'24:10.494',-0.370,-0.445
'24:10.497',-0.370,-0.450
'24:10.500',-0.365,-0.455
'24:10.503',-0.365,-0.465
'24:10.506',-0.360,-0.460
'24:10.508',-0.345,-0.455
'24:10.511',-0.340,-0.450
'24:10.514',-0.340,-0.440
'24:10.517',-0.330,-0.425
'24:10.519',-0.325,-0.410
'24:10.522',-0.320,-0.405
'24:10.525',-0.305,-0.415
'24:10.528',-0.310,-0.415
'24:10.531',-0.300,-0.420
'24:10.533',-0.285,-0.430
'24:10.536',-0.290,-0.455
'24:10.539',-0.300,-0.465
'24:10.542',-0.320,-0.480
'24:10.544',-0.335,-0.480
'24:10.547',-0.345,-0.485
'24:10.550',-0.335,-0.475
'24:10.553',-0.340,-0.475
'24:10.556',-0.330,-0.465
'24:10.558',-0.330,-0.465
'24:10.561',-0.325,-0.465
'24:10.564',-0.330,-0.465
'24:10.567',-0.335,-0.475
'24:10.569',-0.345,-0.485
'24:10.572',-0.365,-0.485
'24:10.575',-0.360,-0.490
'24:10.578',-0.375,-0.480
'24:10.581',-0.380,-0.475
'24:10.583',-0.375,-0.465
'24:10.586',-0.380,-0.465
'24:10.589',-0.385,-0.445
'24:10.592',-0.385,-0.450
'24:10.594',-0.380,-0.445
'24:10.597',-0.380,-0.450
'24:10.600',-0.380,-0.460
'24:10.603',-0.380,-0.465
'24:10.606',-0.390,-0.470
'24:10.608',-0.390,-0.475
'24:10.611',-0.395,-0.465
'24:10.614',-0.385,-0.460
'24:10.617',-0.375,-0.460
'24:10.619',-0.370,-0.455
'24:10.622',-0.365,-0.440
'24:10.625',-0.350,-0.455
'24:10.628',-0.355,-0.450
'24:10.631',-0.345,-0.465
'24:10.633',-0.380,-0.465
'24:10.636',-0.395,-0.465
'24:10.639',-0.425,-0.475
'24:10.642',-0.450,-0.470
'24:10.644',-0.430,-0.465
'24:10.647',-0.385,-0.455
'24:10.650',-0.300,-0.445
'24:10.653',-0.180,-0.430
'24:10.656',-0.035,-0.440
'24:10.658',0.160,-0.465
'24:10.661',0.380,-0.510
'24:10.664',0.600,-0.555
'24:10.667',0.785,-0.615
'24:10.669',0.875,-0.670
'24:10.672',0.830,-0.690
'24:10.675',0.635,-0.690
'24:10.678',0.330,-0.670
'24:10.681',0.015,-0.615
'24:10.683',-0.265,-0.550
'24:10.686',-0.440,-0.470
'24:10.689',-0.495,-0.425
'24:10.692',-0.465,-0.380
'24:10.694',-0.390,-0.370
'24:10.697',-0.320,-0.395
'24:10.700',-0.285,-0.425
'24:10.703',-0.270,-0.480
'24:10.706',-0.285,-0.510
'24:10.708',-0.295,-0.540
'24:10.711',-0.320,-0.535
'24:10.714',-0.310,-0.525
'24:10.717',-0.325,-0.510
'24:10.719',-0.325,-0.490
'24:10.722',-0.325,-0.470
'24:10.725',-0.325,-0.470
'24:10.728',-0.320,-0.465
'24:10.731',-0.335,-0.475
'24:10.733',-0.345,-0.475
'24:10.736',-0.355,-0.485
'24:10.739',-0.365,-0.490
'24:10.742',-0.365,-0.485
'24:10.744',-0.370,-0.480
'24:10.747',-0.370,-0.475
'24:10.750',-0.350,-0.475
'24:10.753',-0.350,-0.465
'24:10.756',-0.350,-0.460
'24:10.758',-0.335,-0.460
'24:10.761',-0.340,-0.465
'24:10.764',-0.325,-0.465
'24:10.767',-0.335,-0.470
'24:10.769',-0.340,-0.470
'24:10.772',-0.345,-0.475
'24:10.775',-0.340,-0.485
'24:10.778',-0.340,-0.480
'24:10.781',-0.345,-0.465
'24:10.783',-0.335,-0.470
'24:10.786',-0.320,-0.460
'24:10.789',-0.315,-0.455
'24:10.792',-0.310,-0.465
'24:10.794',-0.310,-0.465
'24:10.797',-0.315,-0.465
'24:10.800',-0.310,-0.470
'24:10.803',-0.315,-0.490
'24:10.806',-0.320,-0.485
'24:10.808',-0.320,-0.485
'24:10.811',-0.325,-0.485
'24:10.814',-0.320,-0.480
'24:10.817',-0.305,-0.475
'24:10.819',-0.310,-0.460
'24:10.822',-0.300,-0.460
'24:10.825',-0.300,-0.480
'24:10.828',-0.295,-0.480
'24:10.831',-0.285,-0.490
'24:10.833',-0.285,-0.495
'24:10.836',-0.290,-0.510
'24:10.839',-0.305,-0.510
'24:10.842',-0.300,-0.505
'24:10.844',-0.310,-0.505
'24:10.847',-0.300,-0.500
'24:10.850',-0.300,-0.495
'24:10.853',-0.290,-0.485
'24:10.856',-0.280,-0.475
'24:10.858',-0.265,-0.485
'24:10.861',-0.270,-0.500
'24:10.864',-0.265,-0.495
'24:10.867',-0.270,-0.515
'24:10.869',-0.285,-0.535
'24:10.872',-0.290,-0.520
'24:10.875',-0.300,-0.525
'24:10.878',-0.295,-0.520
'24:10.881',-0.295,-0.525
'24:10.883',-0.280,-0.515
'24:10.886',-0.270,-0.510
'24:10.889',-0.270,-0.520
'24:10.892',-0.265,-0.525
'24:10.894',-0.255,-0.520
'24:10.897',-0.275,-0.530
'24:10.900',-0.265,-0.545
'24:10.903',-0.270,-0.565
'24:10.906',-0.275,-0.550
'24:10.908',-0.275,-0.550
'24:10.911',-0.275,-0.550
'24:10.914',-0.280,-0.540
'24:10.917',-0.265,-0.545
'24:10.919',-0.260,-0.550
'24:10.922',-0.250,-0.535
'24:10.925',-0.255,-0.540
'24:10.928',-0.245,-0.545
'24:10.931',-0.245,-0.565
'24:10.933',-0.255,-0.570
'24:10.936',-0.255,-0.570
'24:10.939',-0.255,-0.585
'24:10.942',-0.255,-0.575
'24:10.944',-0.260,-0.580
'24:10.947',-0.240,-0.575
'24:10.950',-0.230,-0.575
'24:10.953',-0.210,-0.560
'24:10.956',-0.205,-0.560
'24:10.958',-0.195,-0.570
'24:10.961',-0.190,-0.580
'24:10.964',-0.205,-0.580
'24:10.967',-0.190,-0.585
'24:10.969',-0.195,-0.590
'24:10.972',-0.205,-0.590
'24:10.975',-0.205,-0.610
'24:10.978',-0.210,-0.605
'24:10.981',-0.200,-0.590
'24:10.983',-0.210,-0.570
'24:10.986',-0.210,-0.570
'24:10.989',-0.215,-0.545
'24:10.992',-0.215,-0.545
'24:10.994',-0.220,-0.545
'24:10.997',-0.225,-0.550
'24:11.000',-0.245,-0.555
'24:11.003',-0.265,-0.565
'24:11.006',-0.270,-0.545
'24:11.008',-0.285,-0.545
'24:11.011',-0.290,-0.540
'24:11.014',-0.295,-0.530
'24:11.017',-0.290,-0.520
'24:11.019',-0.285,-0.510
'24:11.022',-0.275,-0.495
'24:11.025',-0.275,-0.500
'24:11.028',-0.280,-0.500
'24:11.031',-0.285,-0.500
'24:11.033',-0.285,-0.515
'24:11.036',-0.305,-0.520
'24:11.039',-0.305,-0.515
'24:11.042',-0.325,-0.515
'24:11.044',-0.325,-0.505
'24:11.047',-0.325,-0.495
'24:11.050',-0.320,-0.490
'24:11.053',-0.320,-0.485
'24:11.056',-0.315,-0.475
'24:11.058',-0.310,-0.480
'24:11.061',-0.315,-0.480
'24:11.064',-0.310,-0.485
'24:11.067',-0.320,-0.490
'24:11.069',-0.330,-0.495
'24:11.072',-0.340,-0.510
'24:11.075',-0.335,-0.505
'24:11.078',-0.345,-0.495
'24:11.081',-0.350,-0.500
'24:11.083',-0.350,-0.495
'24:11.086',-0.340,-0.485
'24:11.089',-0.335,-0.485
'24:11.092',-0.325,-0.475
'24:11.094',-0.330,-0.485
'24:11.097',-0.330,-0.485
'24:11.100',-0.335,-0.490
'24:11.103',-0.345,-0.505
'24:11.106',-0.340,-0.505
'24:11.108',-0.350,-0.510
'24:11.111',-0.355,-0.495
'24:11.114',-0.350,-0.495
'24:11.117',-0.350,-0.490
'24:11.119',-0.345,-0.495
'24:11.122',-0.335,-0.475
'24:11.125',-0.335,-0.475
'24:11.128',-0.335,-0.485
'24:11.131',-0.340,-0.485
'24:11.133',-0.350,-0.495
'24:11.136',-0.350,-0.500
'24:11.139',-0.365,-0.510
'24:11.142',-0.360,-0.505
'24:11.144',-0.365,-0.515
'24:11.147',-0.365,-0.505
'24:11.150',-0.355,-0.490
'24:11.153',-0.350,-0.475
'24:11.156',-0.350,-0.480
'24:11.158',-0.345,-0.485
'24:11.161',-0.345,-0.490
'24:11.164',-0.345,-0.490
'24:11.167',-0.355,-0.510
'24:11.169',-0.365,-0.505
'24:11.172',-0.375,-0.515
'24:11.175',-0.370,-0.500
'24:11.178',-0.375,-0.510
'24:11.181',-0.380,-0.505
'24:11.183',-0.375,-0.485
'24:11.186',-0.365,-0.485
'24:11.189',-0.345,-0.480
'24:11.192',-0.355,-0.480
'24:11.194',-0.355,-0.480
'24:11.197',-0.365,-0.490
'24:11.200',-0.360,-0.485
'24:11.203',-0.365,-0.490
'24:11.206',-0.370,-0.505
'24:11.208',-0.375,-0.510
'24:11.211',-0.375,-0.510
'24:11.214',-0.380,-0.490
'24:11.217',-0.365,-0.495
'24:11.219',-0.370,-0.485
'24:11.222',-0.350,-0.480
'24:11.225',-0.350,-0.475
'24:11.228',-0.335,-0.480
'24:11.231',-0.325,-0.485
'24:11.233',-0.315,-0.485
'24:11.236',-0.305,-0.475
'24:11.239',-0.320,-0.490
'24:11.242',-0.315,-0.475
'24:11.244',-0.315,-0.480
'24:11.247',-0.310,-0.465
'24:11.250',-0.295,-0.455
'24:11.253',-0.280,-0.450
'24:11.256',-0.265,-0.445
'24:11.258',-0.250,-0.460
'24:11.261',-0.240,-0.465
'24:11.264',-0.250,-0.480
'24:11.267',-0.275,-0.490
'24:11.269',-0.295,-0.505
'24:11.272',-0.310,-0.525
'24:11.275',-0.315,-0.525
'24:11.278',-0.315,-0.520
'24:11.281',-0.315,-0.520
'24:11.283',-0.310,-0.510
'24:11.286',-0.315,-0.505
'24:11.289',-0.305,-0.490
'24:11.292',-0.310,-0.500
'24:11.294',-0.315,-0.495
'24:11.297',-0.320,-0.505
'24:11.300',-0.335,-0.515
'24:11.303',-0.345,-0.510
'24:11.306',-0.355,-0.525
'24:11.308',-0.375,-0.525
'24:11.311',-0.385,-0.505
'24:11.314',-0.375,-0.510
'24:11.317',-0.380,-0.490
'24:11.319',-0.370,-0.480
'24:11.322',-0.350,-0.485
'24:11.325',-0.350,-0.490
'24:11.328',-0.350,-0.495
'24:11.331',-0.360,-0.495
'24:11.333',-0.365,-0.495
'24:11.336',-0.375,-0.505
'24:11.339',-0.375,-0.505
'24:11.342',-0.380,-0.505
'24:11.344',-0.380,-0.515
'24:11.347',-0.365,-0.500
'24:11.350',-0.365,-0.500
'24:11.353',-0.375,-0.495
'24:11.356',-0.365,-0.485
'24:11.358',-0.380,-0.480
'24:11.361',-0.405,-0.500
'24:11.364',-0.420,-0.500
'24:11.367',-0.405,-0.495
'24:11.369',-0.355,-0.500
'24:11.372',-0.265,-0.500
'24:11.375',-0.140,-0.505
'24:11.378',0.040,-0.505
'24:11.381',0.250,-0.535
'24:11.383',0.490,-0.570
'24:11.386',0.690,-0.605
'24:11.389',0.850,-0.645
'24:11.392',0.860,-0.680
'24:11.394',0.710,-0.690
'24:11.397',0.425,-0.665
'24:11.400',0.085,-0.630
'24:11.403',-0.230,-0.580
'24:11.406',-0.440,-0.525
'24:11.408',-0.520,-0.475
'24:11.411',-0.510,-0.445
'24:11.414',-0.425,-0.430
'24:11.417',-0.350,-0.435
'24:11.419',-0.295,-0.460
'24:11.422',-0.265,-0.500
'24:11.425',-0.265,-0.535
'24:11.428',-0.260,-0.550
'24:11.431',-0.275,-0.560
'24:11.433',-0.315,-0.565
'24:11.436',-0.330,-0.560
'24:11.439',-0.350,-0.560
'24:11.442',-0.350,-0.550
'24:11.444',-0.360,-0.540
'24:11.447',-0.365,-0.535
'24:11.450',-0.340,-0.530
'24:11.453',-0.350,-0.510
'24:11.456',-0.335,-0.510
'24:11.458',-0.340,-0.515
'24:11.461',-0.345,-0.515
'24:11.464',-0.345,-0.515
'24:11.467',-0.350,-0.520
'24:11.469',-0.360,-0.530
'24:11.472',-0.360,-0.530
'24:11.475',-0.360,-0.540
'24:11.478',-0.370,-0.535
'24:11.481',-0.360,-0.520
'24:11.483',-0.360,-0.515
'24:11.486',-0.345,-0.515
'24:11.489',-0.350,-0.510
'24:11.492',-0.340,-0.505
'24:11.494',-0.330,-0.505
'24:11.497',-0.330,-0.515
'24:11.500',-0.340,-0.520
'24:11.503',-0.345,-0.525
'24:11.506',-0.350,-0.525
'24:11.508',-0.350,-0.525
'24:11.511',-0.345,-0.525
'24:11.514',-0.335,-0.525
'24:11.517',-0.330,-0.520
'24:11.519',-0.335,-0.510
'24:11.522',-0.320,-0.500
'24:11.525',-0.315,-0.505
'24:11.528',-0.315,-0.515
'24:11.531',-0.320,-0.525
'24:11.533',-0.320,-0.525
'24:11.536',-0.320,-0.535
'24:11.539',-0.335,-0.545
'24:11.542',-0.340,-0.555
'24:11.544',-0.340,-0.540
'24:11.547',-0.330,-0.540
'24:11.550',-0.320,-0.540
'24:11.553',-0.310,-0.535
'24:11.556',-0.300,-0.535
'24:11.558',-0.300,-0.530
'24:11.561',-0.295,-0.540
'24:11.564',-0.290,-0.550
'24:11.567',-0.295,-0.550
'24:11.569',-0.305,-0.560
'24:11.572',-0.305,-0.560
'24:11.575',-0.310,-0.565
'24:11.578',-0.305,-0.565
'24:11.581',-0.305,-0.555
'24:11.583',-0.300,-0.550
'24:11.586',-0.290,-0.545
'24:11.589',-0.280,-0.545
'24:11.592',-0.285,-0.535
'24:11.594',-0.275,-0.555
'24:11.597',-0.275,-0.550
'24:11.600',-0.280,-0.570
'24:11.603',-0.285,-0.585
'24:11.606',-0.300,-0.580
'24:11.608',-0.300,-0.590
'24:11.611',-0.300,-0.580
'24:11.614',-0.295,-0.575
'24:11.617',-0.290,-0.570
'24:11.619',-0.285,-0.575
'24:11.622',-0.280,-0.570
'24:11.625',-0.275,-0.565
'24:11.628',-0.260,-0.585
'24:11.631',-0.265,-0.590
'24:11.633',-0.265,-0.585
'24:11.636',-0.280,-0.595
'24:11.639',-0.280,-0.610
'24:11.642',-0.275,-0.605
'24:11.644',-0.270,-0.595
'24:11.647',-0.275,-0.600
'24:11.650',-0.255,-0.590
'24:11.653',-0.260,-0.595
'24:11.656',-0.240,-0.580
'24:11.658',-0.235,-0.585
'24:11.661',-0.235,-0.590
'24:11.664',-0.230,-0.590
'24:11.667',-0.230,-0.600
'24:11.669',-0.225,-0.610
'24:11.672',-0.225,-0.625
'24:11.675',-0.220,-0.615
'24:11.678',-0.215,-0.615
'24:11.681',-0.210,-0.615
'24:11.683',-0.200,-0.605
'24:11.686',-0.195,-0.595
'24:11.689',-0.185,-0.590
'24:11.692',-0.185,-0.580
'24:11.694',-0.195,-0.590
'24:11.697',-0.190,-0.590
'24:11.700',-0.210,-0.600
'24:11.703',-0.215,-0.605
'24:11.706',-0.225,-0.600
'24:11.708',-0.245,-0.595
'24:11.711',-0.245,-0.585
'24:11.714',-0.250,-0.575
'24:11.717',-0.255,-0.570
'24:11.719',-0.245,-0.555
'24:11.722',-0.245,-0.545
'24:11.725',-0.260,-0.535
'24:11.728',-0.255,-0.545
'24:11.731',-0.265,-0.545
'24:11.733',-0.275,-0.550
'24:11.736',-0.275,-0.560
'24:11.739',-0.285,-0.555
'24:11.742',-0.295,-0.545
'24:11.744',-0.295,-0.535
'24:11.747',-0.300,-0.540
'24:11.750',-0.300,-0.520
'24:11.753',-0.295,-0.520
'24:11.756',-0.285,-0.510
'24:11.758',-0.285,-0.510
'24:11.761',-0.285,-0.510
'24:11.764',-0.290,-0.515
'24:11.767',-0.290,-0.525
'24:11.769',-0.305,-0.520
'24:11.772',-0.305,-0.520
'24:11.775',-0.315,-0.530
'24:11.778',-0.325,-0.530
'24:11.781',-0.315,-0.520
'24:11.783',-0.315,-0.510
'24:11.786',-0.315,-0.500
'24:11.789',-0.305,-0.495
'24:11.792',-0.295,-0.490
'24:11.794',-0.285,-0.495
'24:11.797',-0.300,-0.500
'24:11.800',-0.300,-0.505
'24:11.803',-0.305,-0.515
'24:11.806',-0.310,-0.525
'24:11.808',-0.320,-0.520
'24:11.811',-0.320,-0.505
'24:11.814',-0.315,-0.510
'24:11.817',-0.320,-0.510
'24:11.819',-0.315,-0.500
'24:11.822',-0.305,-0.495
'24:11.825',-0.305,-0.495
'24:11.828',-0.310,-0.495
'24:11.831',-0.315,-0.500
'24:11.833',-0.315,-0.500
'24:11.836',-0.320,-0.525
'24:11.839',-0.330,-0.520
'24:11.842',-0.350,-0.530
'24:11.844',-0.350,-0.510
'24:11.847',-0.340,-0.505
'24:11.850',-0.345,-0.495
'24:11.853',-0.330,-0.505
'24:11.856',-0.325,-0.495
'24:11.858',-0.320,-0.505
'24:11.861',-0.315,-0.500
'24:11.864',-0.315,-0.490
'24:11.867',-0.325,-0.495
'24:11.869',-0.310,-0.515
'24:11.872',-0.335,-0.505
'24:11.875',-0.335,-0.520
'24:11.878',-0.345,-0.515
'24:11.881',-0.345,-0.510
'24:11.883',-0.345,-0.500
'24:11.886',-0.335,-0.500
'24:11.889',-0.330,-0.480
'24:11.892',-0.325,-0.495
'24:11.894',-0.325,-0.500
'24:11.897',-0.330,-0.495
'24:11.900',-0.335,-0.500
'24:11.903',-0.345,-0.505
'24:11.906',-0.355,-0.520
'24:11.908',-0.360,-0.515
'24:11.911',-0.360,-0.510
'24:11.914',-0.350,-0.505
'24:11.917',-0.355,-0.495
'24:11.919',-0.345,-0.500
'24:11.922',-0.340,-0.480
'24:11.925',-0.340,-0.475
'24:11.928',-0.330,-0.485
'24:11.931',-0.335,-0.490
'24:11.933',-0.335,-0.505
'24:11.936',-0.350,-0.500
'24:11.939',-0.350,-0.500
'24:11.942',-0.360,-0.505
'24:11.944',-0.355,-0.505
'24:11.947',-0.355,-0.505
'24:11.950',-0.345,-0.490
'24:11.953',-0.355,-0.485
'24:11.956',-0.320,-0.485
'24:11.958',-0.315,-0.480
'24:11.961',-0.310,-0.475
'24:11.964',-0.285,-0.490
'24:11.967',-0.290,-0.495
'24:11.969',-0.300,-0.495
'24:11.972',-0.300,-0.500
'24:11.975',-0.295,-0.480
'24:11.978',-0.305,-0.475
'24:11.981',-0.295,-0.475
'24:11.983',-0.285,-0.460
'24:11.986',-0.270,-0.455
'24:11.989',-0.245,-0.460
'24:11.992',-0.240,-0.465
'24:11.994',-0.240,-0.480
'24:11.997',-0.250,-0.485
'24:12.000',-0.275,-0.515
'24:12.003',-0.290,-0.525
'24:12.006',-0.305,-0.530
'24:12.008',-0.315,-0.535
'24:12.011',-0.305,-0.525
'24:12.014',-0.310,-0.525
'24:12.017',-0.305,-0.510
'24:12.019',-0.310,-0.510
'24:12.022',-0.320,-0.510
'24:12.025',-0.310,-0.495
'24:12.028',-0.305,-0.500
'24:12.031',-0.305,-0.500
'24:12.033',-0.310,-0.500
'24:12.036',-0.320,-0.510
'24:12.039',-0.335,-0.515
'24:12.042',-0.345,-0.505
'24:12.044',-0.360,-0.495
'24:12.047',-0.365,-0.500
'24:12.050',-0.365,-0.500
'24:12.053',-0.370,-0.485
'24:12.056',-0.350,-0.470
'24:12.058',-0.340,-0.470
'24:12.061',-0.345,-0.490
'24:12.064',-0.330,-0.490
'24:12.067',-0.335,-0.495
'24:12.069',-0.340,-0.500
'24:12.072',-0.345,-0.495
'24:12.075',-0.350,-0.505
'24:12.078',-0.350,-0.505
'24:12.081',-0.355,-0.495
'24:12.083',-0.340,-0.485
'24:12.086',-0.345,-0.490
'24:12.089',-0.345,-0.475
'24:12.092',-0.355,-0.470
'24:12.094',-0.370,-0.470
'24:12.097',-0.395,-0.480
'24:12.100',-0.395,-0.485
'24:12.103',-0.355,-0.480
'24:12.106',-0.280,-0.480
'24:12.108',-0.160,-0.490
'24:12.111',-0.005,-0.495
'24:12.114',0.190,-0.525
'24:12.117',0.425,-0.550
'24:12.119',0.630,-0.575
'24:12.122',0.805,-0.615
'24:12.125',0.870,-0.640
'24:12.128',0.765,-0.665
'24:12.131',0.525,-0.655
'24:12.133',0.195,-0.630
'24:12.136',-0.120,-0.590
'24:12.139',-0.370,-0.550
'24:12.142',-0.490,-0.495
'24:12.144',-0.495,-0.450
'24:12.147',-0.420,-0.440
'24:12.150',-0.330,-0.455
'24:12.153',-0.265,-0.475
'24:12.156',-0.235,-0.510
'24:12.158',-0.230,-0.535
'24:12.161',-0.240,-0.555
'24:12.164',-0.255,-0.545
'24:12.167',-0.285,-0.545
'24:12.169',-0.305,-0.535
'24:12.172',-0.320,-0.535
'24:12.175',-0.330,-0.525
'24:12.178',-0.330,-0.510
'24:12.181',-0.325,-0.515
'24:12.183',-0.325,-0.490
'24:12.186',-0.325,-0.480
'24:12.189',-0.315,-0.480
'24:12.192',-0.315,-0.470
'24:12.194',-0.315,-0.490
'24:12.197',-0.320,-0.485
'24:12.200',-0.320,-0.485
'24:12.203',-0.325,-0.490
'24:12.206',-0.335,-0.490
'24:12.208',-0.335,-0.505
'24:12.211',-0.335,-0.490
'24:12.214',-0.330,-0.490
'24:12.217',-0.330,-0.485
'24:12.219',-0.320,-0.480
'24:12.222',-0.310,-0.480
'24:12.225',-0.305,-0.475
'24:12.228',-0.310,-0.475
'24:12.231',-0.310,-0.475
'24:12.233',-0.320,-0.485
'24:12.236',-0.325,-0.505
'24:12.239',-0.325,-0.505
'24:12.242',-0.340,-0.510
'24:12.244',-0.335,-0.505
'24:12.247',-0.320,-0.500
'24:12.250',-0.305,-0.490
'24:12.253',-0.315,-0.485
'24:12.256',-0.305,-0.475
'24:12.258',-0.295,-0.470
'24:12.261',-0.290,-0.495
'24:12.264',-0.285,-0.485
'24:12.267',-0.290,-0.490
'24:12.269',-0.290,-0.505
'24:12.272',-0.295,-0.505
'24:12.275',-0.290,-0.525
'24:12.278',-0.290,-0.515
'24:12.281',-0.295,-0.505
'24:12.283',-0.285,-0.515
'24:12.286',-0.280,-0.500
'24:12.289',-0.270,-0.500
'24:12.292',-0.265,-0.505
'24:12.294',-0.270,-0.495
'24:12.297',-0.270,-0.505
'24:12.300',-0.265,-0.510
'24:12.303',-0.275,-0.520
'24:12.306',-0.280,-0.530
'24:12.308',-0.280,-0.535
'24:12.311',-0.280,-0.535
'24:12.314',-0.275,-0.535
'24:12.317',-0.270,-0.515
'24:12.319',-0.270,-0.520
'24:12.322',-0.250,-0.525
'24:12.325',-0.260,-0.510
'24:12.328',-0.255,-0.530
'24:12.331',-0.255,-0.520
'24:12.333',-0.255,-0.530
'24:12.336',-0.255,-0.535
'24:12.339',-0.265,-0.555
'24:12.342',-0.265,-0.555
'24:12.344',-0.270,-0.550
'24:12.347',-0.260,-0.545
'24:12.350',-0.255,-0.545
'24:12.353',-0.250,-0.535
'24:12.356',-0.245,-0.535
'24:12.358',-0.240,-0.535
'24:12.361',-0.245,-0.545
'24:12.364',-0.240,-0.550
'24:12.367',-0.240,-0.565
'24:12.369',-0.245,-0.565
'24:12.372',-0.255,-0.570
'24:12.375',-0.260,-0.575
'24:12.378',-0.260,-0.575
'24:12.381',-0.255,-0.570
'24:12.383',-0.235,-0.570
'24:12.386',-0.235,-0.555
'24:12.389',-0.230,-0.560
'24:12.392',-0.215,-0.545
'24:12.394',-0.215,-0.560
'24:12.397',-0.210,-0.570
'24:12.400',-0.200,-0.570
'24:12.403',-0.220,-0.580
'24:12.406',-0.225,-0.590
'24:12.408',-0.220,-0.595
'24:12.411',-0.210,-0.590
'24:12.414',-0.195,-0.595
'24:12.417',-0.190,-0.575
'24:12.419',-0.180,-0.565
'24:12.422',-0.175,-0.560
'24:12.425',-0.170,-0.565
'24:12.428',-0.175,-0.570
'24:12.431',-0.175,-0.565
'24:12.433',-0.175,-0.575
'24:12.436',-0.185,-0.575
'24:12.439',-0.190,-0.575
'24:12.442',-0.190,-0.580
'24:12.444',-0.215,-0.570
'24:12.447',-0.205,-0.560
'24:12.450',-0.215,-0.565
'24:12.453',-0.220,-0.545
'24:12.456',-0.215,-0.545
'24:12.458',-0.215,-0.535
'24:12.461',-0.225,-0.535
'24:12.464',-0.235,-0.530
'24:12.467',-0.230,-0.535
'24:12.469',-0.250,-0.535
'24:12.472',-0.265,-0.535
'24:12.475',-0.275,-0.540
'24:12.478',-0.285,-0.530
'24:12.481',-0.285,-0.525
'24:12.483',-0.285,-0.515
'24:12.486',-0.285,-0.510
'24:12.489',-0.280,-0.495
'24:12.492',-0.270,-0.485
'24:12.494',-0.280,-0.505
'24:12.497',-0.285,-0.505
'24:12.500',-0.295,-0.510
'24:12.503',-0.295,-0.515
'24:12.506',-0.295,-0.520
'24:12.508',-0.310,-0.520
'24:12.511',-0.310,-0.520
'24:12.514',-0.320,-0.510
'24:12.517',-0.315,-0.500
'24:12.519',-0.310,-0.495
'24:12.522',-0.300,-0.475
'24:12.525',-0.300,-0.475
'24:12.528',-0.300,-0.485
'24:12.531',-0.300,-0.495
'24:12.533',-0.305,-0.490
'24:12.536',-0.305,-0.495
'24:12.539',-0.320,-0.500
'24:12.542',-0.330,-0.510
'24:12.544',-0.340,-0.500
'24:12.547',-0.335,-0.505
'24:12.550',-0.335,-0.485
'24:12.553',-0.325,-0.485
'24:12.556',-0.325,-0.470
'24:12.558',-0.305,-0.475
'24:12.561',-0.310,-0.475
'24:12.564',-0.310,-0.485
'24:12.567',-0.315,-0.485
'24:12.569',-0.320,-0.495
'24:12.572',-0.330,-0.505
'24:12.575',-0.335,-0.510
'24:12.578',-0.340,-0.495
'24:12.581',-0.335,-0.505
'24:12.583',-0.330,-0.485
'24:12.586',-0.325,-0.480
'24:12.589',-0.330,-0.480
'24:12.592',-0.315,-0.475
'24:12.594',-0.315,-0.475
'24:12.597',-0.325,-0.480
'24:12.600',-0.335,-0.485
'24:12.603',-0.340,-0.490
'24:12.606',-0.330,-0.500
'24:12.608',-0.335,-0.500
'24:12.611',-0.345,-0.495
'24:12.614',-0.345,-0.490
'24:12.617',-0.345,-0.490
'24:12.619',-0.340,-0.480
'24:12.622',-0.340,-0.475
'24:12.625',-0.330,-0.475
'24:12.628',-0.330,-0.470
'24:12.631',-0.335,-0.475
'24:12.633',-0.340,-0.485
'24:12.636',-0.345,-0.485
'24:12.639',-0.360,-0.500
'24:12.642',-0.355,-0.500
'24:12.644',-0.360,-0.495
'24:12.647',-0.355,-0.475
'24:12.650',-0.350,-0.485
'24:12.653',-0.340,-0.480
'24:12.656',-0.330,-0.475
'24:12.658',-0.325,-0.475
'24:12.661',-0.325,-0.475
'24:12.664',-0.320,-0.475
'24:12.667',-0.325,-0.480
'24:12.669',-0.335,-0.485
'24:12.672',-0.340,-0.500
'24:12.675',-0.340,-0.500
'24:12.678',-0.345,-0.490
'24:12.681',-0.355,-0.485
'24:12.683',-0.350,-0.480
'24:12.686',-0.330,-0.470
'24:12.689',-0.325,-0.470
'24:12.692',-0.310,-0.470
'24:12.694',-0.305,-0.480
'24:12.697',-0.290,-0.470
'24:12.700',-0.290,-0.485
'24:12.703',-0.285,-0.475
'24:12.706',-0.285,-0.485
'24:12.708',-0.290,-0.480
'24:12.711',-0.295,-0.485
'24:12.714',-0.305,-0.465
'24:12.717',-0.285,-0.460
'24:12.719',-0.270,-0.455
'24:12.722',-0.255,-0.445
'24:12.725',-0.245,-0.435
'24:12.728',-0.225,-0.460
'24:12.731',-0.230,-0.465
'24:12.733',-0.235,-0.480
'24:12.736',-0.250,-0.500
'24:12.739',-0.270,-0.510
'24:12.742',-0.290,-0.520
'24:12.744',-0.305,-0.515
'24:12.747',-0.305,-0.525
'24:12.750',-0.300,-0.500
'24:12.753',-0.295,-0.505
'24:12.756',-0.290,-0.485
'24:12.758',-0.290,-0.485
'24:12.761',-0.285,-0.490
'24:12.764',-0.290,-0.490
'24:12.767',-0.295,-0.495
'24:12.769',-0.310,-0.500
'24:12.772',-0.320,-0.500
'24:12.775',-0.325,-0.525
'24:12.778',-0.335,-0.500
'24:12.781',-0.345,-0.485
'24:12.783',-0.345,-0.475
'24:12.786',-0.350,-0.480
'24:12.789',-0.345,-0.460
'24:12.792',-0.340,-0.455
'24:12.794',-0.330,-0.465
'24:12.797',-0.330,-0.460
'24:12.800',-0.330,-0.475
'24:12.803',-0.345,-0.475
'24:12.806',-0.340,-0.490
'24:12.808',-0.355,-0.485
'24:12.811',-0.350,-0.490
'24:12.814',-0.360,-0.480
'24:12.817',-0.350,-0.470
'24:12.819',-0.340,-0.465
'24:12.822',-0.330,-0.460
'24:12.825',-0.325,-0.450
'24:12.828',-0.330,-0.460
