'Elapsed time','MLII','V1'
'hh:mm:ss.mmm','mV','mV'
'17:00.000',1.520,-0.655
'17:00.003',1.460,-0.490
'17:00.006',1.385,-0.325
'17:00.008',1.285,-0.165
'17:00.011',1.145,-0.040
'17:00.014',0.950,0.095
'17:00.017',0.730,0.205
'17:00.019',0.465,0.305
'17:00.022',0.190,0.390
'17:00.025',-0.075,0.430
'17:00.028',-0.285,0.435
'17:00.031',-0.440,0.390
'17:00.033',-0.535,0.325
'17:00.036',-0.575,0.225
'17:00.039',-0.585,0.130
'17:00.042',-0.585,0.025
'17:00.044',-0.600,-0.075
'17:00.047',-0.620,-0.145
'17:00.050',-0.645,-0.210
'17:00.053',-0.680,-0.255
'17:00.056',-0.700,-0.285
'17:00.058',-0.725,-0.300
'17:00.061',-0.730,-0.305
'17:00.064',-0.745,-0.310
'17:00.067',-0.755,-0.310
'17:00.069',-0.755,-0.310
'17:00.072',-0.775,-0.300
'17:00.075',-0.770,-0.300
'17:00.078',-0.775,-0.335
'17:00.081',-0.790,-0.335
'17:00.083',-0.795,-0.340
'17:00.086',-0.795,-0.355
'17:00.089',-0.805,-0.345
'17:00.092',-0.815,-0.350
'17:00.094',-0.825,-0.345
'17:00.097',-0.840,-0.340
'17:00.100',-0.840,-0.340
'17:00.103',-0.845,-0.335
'17:00.106',-0.840,-0.330
'17:00.108',-0.830,-0.325
'17:00.111',-0.830,-0.335
'17:00.114',-0.845,-0.345
'17:00.117',-0.855,-0.355
'17:00.119',-0.870,-0.350
'17:00.122',-0.875,-0.365
'17:00.125',-0.890,-0.360
'17:00.128',-0.890,-0.360
'17:00.131',-0.885,-0.365
'17:00.133',-0.885,-0.360
'17:00.136',-0.885,-0.350
'17:00.139',-0.890,-0.325
'17:00.142',-0.915,-0.330
'17:00.144',-0.900,-0.330
'17:00.147',-0.920,-0.340
'17:00.150',-0.920,-0.350
'17:00.153',-0.930,-0.345
'17:00.156',-0.935,-0.370
'17:00.158',-0.960,-0.370
'17:00.161',-0.965,-0.365
'17:00.164',-0.985,-0.350
'17:00.167',-0.990,-0.350
'17:00.169',-0.990,-0.340
'17:00.172',-0.985,-0.340
'17:00.175',-0.995,-0.330
'17:00.178',-1.005,-0.335
'17:00.181',-1.020,-0.340
'17:00.183',-1.025,-0.350
'17:00.186',-1.050,-0.355
'17:00.189',-1.065,-0.365
'17:00.192',-1.080,-0.365
'17:00.194',-1.095,-0.355
'17:00.197',-1.125,-0.360
'17:00.200',-1.135,-0.335
'17:00.203',-1.125,-0.350
'17:00.206',-1.130,-0.340
'17:00.208',-1.140,-0.335
'17:00.211',-1.140,-0.355
'17:00.214',-1.150,-0.350
'17:00.217',-1.175,-0.370
'17:00.219',-1.185,-0.380
'17:00.222',-1.210,-0.385
'17:00.225',-1.215,-0.395
'17:00.228',-1.225,-0.385
'17:00.231',-1.240,-0.385
'17:00.233',-1.240,-0.380
'17:00.236',-1.245,-0.375
'17:00.239',-1.240,-0.370
'17:00.242',-1.240,-0.370
'17:00.244',-1.245,-0.370
'17:00.247',-1.235,-0.380
'17:00.250',-1.235,-0.385
'17:00.253',-1.235,-0.395
'17:00.256',-1.245,-0.410
'17:00.258',-1.250,-0.435
'17:00.261',-1.250,-0.410
'17:00.264',-1.265,-0.410
'17:00.267',-1.260,-0.415
'17:00.269',-1.245,-0.415
'17:00.272',-1.230,-0.400
'17:00.275',-1.200,-0.405
'17:00.278',-1.185,-0.420
'17:00.281',-1.170,-0.420
'17:00.283',-1.165,-0.440
'17:00.286',-1.155,-0.440
'17:00.289',-1.165,-0.445
'17:00.292',-1.140,-0.450
'17:00.294',-1.130,-0.455
'17:00.297',-1.100,-0.445
'17:00.300',-1.090,-0.435
'17:00.303',-1.050,-0.440
'17:00.306',-1.025,-0.435
'17:00.308',-0.990,-0.435
'17:00.311',-0.955,-0.450
'17:00.314',-0.940,-0.445
'17:00.317',-0.925,-0.465
'17:00.319',-0.900,-0.465
'17:00.322',-0.900,-0.460
'17:00.325',-0.870,-0.470
'17:00.328',-0.845,-0.450
'17:00.331',-0.835,-0.450
'17:00.333',-0.810,-0.450
'17:00.336',-0.785,-0.430
'17:00.339',-0.765,-0.420
'17:00.342',-0.730,-0.405
'17:00.344',-0.715,-0.435
'17:00.347',-0.705,-0.425
'17:00.350',-0.700,-0.425
'17:00.353',-0.710,-0.435
'17:00.356',-0.695,-0.430
'17:00.358',-0.700,-0.435
'17:00.361',-0.695,-0.430
'17:00.364',-0.705,-0.415
'17:00.367',-0.705,-0.400
'17:00.369',-0.665,-0.380
'17:00.372',-0.665,-0.375
'17:00.375',-0.645,-0.375
'17:00.378',-0.645,-0.380
'17:00.381',-0.650,-0.390
'17:00.383',-0.645,-0.390
'17:00.386',-0.645,-0.385
'17:00.389',-0.645,-0.395
'17:00.392',-0.655,-0.400
'17:00.394',-0.655,-0.375
'17:00.397',-0.655,-0.370
'17:00.400',-0.660,-0.380
'17:00.403',-0.660,-0.365
'17:00.406',-0.655,-0.365
'17:00.408',-0.670,-0.350
'17:00.411',-0.645,-0.350
'17:00.414',-0.660,-0.335
'17:00.417',-0.675,-0.365
'17:00.419',-0.670,-0.360
'17:00.422',-0.670,-0.360
'17:00.425',-0.685,-0.370
'17:00.428',-0.685,-0.360
'17:00.431',-0.680,-0.360
'17:00.433',-0.690,-0.350
'17:00.436',-0.680,-0.350
'17:00.439',-0.675,-0.335
'17:00.442',-0.660,-0.340
'17:00.444',-0.660,-0.340
'17:00.447',-0.665,-0.355
'17:00.450',-0.665,-0.355
'17:00.453',-0.650,-0.345
'17:00.456',-0.660,-0.370
'17:00.458',-0.670,-0.365
'17:00.461',-0.650,-0.360
'17:00.464',-0.640,-0.350
'17:00.467',-0.630,-0.355
'17:00.469',-0.615,-0.355
'17:00.472',-0.620,-0.340
'17:00.475',-0.600,-0.345
'17:00.478',-0.580,-0.340
'17:00.481',-0.575,-0.350
'17:00.483',-0.560,-0.370
'17:00.486',-0.550,-0.375
'17:00.489',-0.560,-0.370
'17:00.492',-0.550,-0.380
'17:00.494',-0.550,-0.375
'17:00.497',-0.535,-0.365
'17:00.500',-0.515,-0.370
'17:00.503',-0.510,-0.360
'17:00.506',-0.510,-0.345
'17:00.508',-0.495,-0.335
'17:00.511',-0.495,-0.345
'17:00.514',-0.490,-0.340
'17:00.517',-0.480,-0.350
'17:00.519',-0.490,-0.355
'17:00.522',-0.480,-0.360
'17:00.525',-0.480,-0.370
'17:00.528',-0.485,-0.355
'17:00.531',-0.480,-0.355
'17:00.533',-0.475,-0.350
'17:00.536',-0.465,-0.340
'17:00.539',-0.470,-0.330
'17:00.542',-0.455,-0.320
'17:00.544',-0.445,-0.320
'17:00.547',-0.470,-0.330
'17:00.550',-0.460,-0.345
'17:00.553',-0.475,-0.345
'17:00.556',-0.485,-0.345
'17:00.558',-0.475,-0.355
'17:00.561',-0.470,-0.345
'17:00.564',-0.470,-0.325
'17:00.567',-0.460,-0.325
'17:00.569',-0.445,-0.320
'17:00.572',-0.445,-0.320
'17:00.575',-0.440,-0.315
'17:00.578',-0.450,-0.315
'17:00.581',-0.445,-0.325
'17:00.583',-0.450,-0.340
'17:00.586',-0.450,-0.335
'17:00.589',-0.455,-0.330
'17:00.592',-0.470,-0.340
'17:00.594',-0.465,-0.335
'17:00.597',-0.460,-0.340
'17:00.600',-0.455,-0.335
'17:00.603',-0.440,-0.325
'17:00.606',-0.445,-0.310
'17:00.608',-0.430,-0.305
'17:00.611',-0.440,-0.320
'17:00.614',-0.445,-0.305
'17:00.617',-0.435,-0.320
'17:00.619',-0.435,-0.335
'17:00.622',-0.430,-0.340
'17:00.625',-0.430,-0.325
'17:00.628',-0.425,-0.325
'17:00.631',-0.415,-0.320
'17:00.633',-0.410,-0.315
'17:00.636',-0.405,-0.300
'17:00.639',-0.395,-0.290
'17:00.642',-0.380,-0.280
'17:00.644',-0.385,-0.290
'17:00.647',-0.380,-0.275
'17:00.650',-0.380,-0.270
'17:00.653',-0.385,-0.265
'17:00.656',-0.380,-0.260
'17:00.658',-0.380,-0.255
'17:00.661',-0.375,-0.250
'17:00.664',-0.360,-0.240
'17:00.667',-0.340,-0.235
'17:00.669',-0.325,-0.225
'17:00.672',-0.315,-0.225
'17:00.675',-0.295,-0.230
'17:00.678',-0.280,-0.250
'17:00.681',-0.275,-0.265
'17:00.683',-0.280,-0.290
'17:00.686',-0.285,-0.320
'17:00.689',-0.290,-0.345
'17:00.692',-0.310,-0.355
'17:00.694',-0.325,-0.360
'17:00.697',-0.315,-0.370
'17:00.700',-0.330,-0.345
'17:00.703',-0.345,-0.340
'17:00.706',-0.350,-0.325
'17:00.708',-0.345,-0.300
'17:00.711',-0.375,-0.295
'17:00.714',-0.390,-0.310
'17:00.717',-0.395,-0.310
'17:00.719',-0.415,-0.310
'17:00.722',-0.430,-0.325
'17:00.725',-0.460,-0.325
'17:00.728',-0.480,-0.310
'17:00.731',-0.470,-0.300
'17:00.733',-0.475,-0.290
'17:00.736',-0.465,-0.295
'17:00.739',-0.475,-0.295
'17:00.742',-0.475,-0.285
'17:00.744',-0.475,-0.290
'17:00.747',-0.470,-0.285
'17:00.750',-0.460,-0.305
'17:00.753',-0.465,-0.300
'17:00.756',-0.460,-0.315
'17:00.758',-0.455,-0.320
'17:00.761',-0.450,-0.320
'17:00.764',-0.455,-0.315
'17:00.767',-0.440,-0.315
'17:00.769',-0.420,-0.305
'17:00.772',-0.415,-0.295
'17:00.775',-0.400,-0.285
'17:00.778',-0.390,-0.310
'17:00.781',-0.390,-0.305
'17:00.783',-0.365,-0.315
'17:00.786',-0.355,-0.325
'17:00.789',-0.325,-0.330
'17:00.792',-0.285,-0.330
'17:00.794',-0.225,-0.315
'17:00.797',-0.125,-0.325
'17:00.800',-0.035,-0.305
'17:00.803',0.100,-0.310
'17:00.806',0.225,-0.315
'17:00.808',0.405,-0.310
'17:00.811',0.605,-0.330
'17:00.814',0.775,-0.350
'17:00.817',0.940,-0.395
'17:00.819',1.060,-0.480
'17:00.822',1.140,-0.560
'17:00.825',1.225,-0.675
'17:00.828',1.305,-0.780
'17:00.831',1.315,-0.905
'17:00.833',1.220,-1.030
'17:00.836',0.970,-1.135
'17:00.839',0.590,-1.215
'17:00.842',0.170,-1.250
'17:00.844',-0.240,-1.275
'17:00.847',-0.550,-1.235
'17:00.850',-0.730,-1.170
'17:00.853',-0.800,-1.095
'17:00.856',-0.785,-1.005
'17:00.858',-0.725,-0.910
'17:00.861',-0.665,-0.830
'17:00.864',-0.615,-0.760
'17:00.867',-0.580,-0.690
'17:00.869',-0.560,-0.635
'17:00.872',-0.555,-0.580
'17:00.875',-0.550,-0.525
'17:00.878',-0.560,-0.465
'17:00.881',-0.565,-0.410
'17:00.883',-0.575,-0.375
'17:00.886',-0.575,-0.355
'17:00.889',-0.585,-0.355
'17:00.892',-0.595,-0.355
'17:00.894',-0.600,-0.335
'17:00.897',-0.610,-0.330
'17:00.900',-0.605,-0.320
'17:00.903',-0.595,-0.310
'17:00.906',-0.595,-0.290
'17:00.908',-0.575,-0.285
'17:00.911',-0.580,-0.285
'17:00.914',-0.585,-0.275
'17:00.917',-0.580,-0.295
'17:00.919',-0.595,-0.305
'17:00.922',-0.610,-0.310
'17:00.925',-0.620,-0.315
'17:00.928',-0.620,-0.310
'17:00.931',-0.620,-0.300
'17:00.933',-0.625,-0.295
'17:00.936',-0.610,-0.295
'17:00.939',-0.620,-0.265
'17:00.942',-0.610,-0.270
'17:00.944',-0.605,-0.270
'17:00.947',-0.615,-0.280
'17:00.950',-0.610,-0.285
'17:00.953',-0.615,-0.295
'17:00.956',-0.630,-0.310
'17:00.958',-0.640,-0.295
'17:00.961',-0.650,-0.300
'17:00.964',-0.645,-0.290
'17:00.967',-0.645,-0.285
'17:00.969',-0.645,-0.270
'17:00.972',-0.640,-0.260
'17:00.975',-0.635,-0.255
'17:00.978',-0.635,-0.270
'17:00.981',-0.640,-0.270
'17:00.983',-0.640,-0.285
'17:00.986',-0.650,-0.295
'17:00.989',-0.655,-0.295
'17:00.992',-0.665,-0.290
'17:00.994',-0.675,-0.270
'17:00.997',-0.685,-0.270
'17:01.000',-0.680,-0.270
'17:01.003',-0.675,-0.265
'17:01.006',-0.665,-0.260
'17:01.008',-0.675,-0.260
'17:01.011',-0.680,-0.245
'17:01.014',-0.685,-0.250
'17:01.017',-0.690,-0.265
'17:01.019',-0.700,-0.270
'17:01.022',-0.700,-0.265
'17:01.025',-0.725,-0.270
'17:01.028',-0.735,-0.275
'17:01.031',-0.735,-0.250
'17:01.033',-0.735,-0.250
'17:01.036',-0.725,-0.240
'17:01.039',-0.730,-0.230
'17:01.042',-0.715,-0.220
'17:01.044',-0.710,-0.220
'17:01.047',-0.715,-0.220
'17:01.050',-0.715,-0.230
'17:01.053',-0.725,-0.230
'17:01.056',-0.735,-0.225
'17:01.058',-0.730,-0.230
'17:01.061',-0.730,-0.220
'17:01.064',-0.715,-0.200
'17:01.067',-0.710,-0.200
'17:01.069',-0.705,-0.185
'17:01.072',-0.695,-0.170
'17:01.075',-0.690,-0.165
'17:01.078',-0.680,-0.165
'17:01.081',-0.665,-0.160
'17:01.083',-0.650,-0.175
'17:01.086',-0.645,-0.180
'17:01.089',-0.640,-0.185
'17:01.092',-0.640,-0.195
'17:01.094',-0.625,-0.180
'17:01.097',-0.610,-0.180
'17:01.100',-0.585,-0.175
'17:01.103',-0.575,-0.165
'17:01.106',-0.550,-0.160
'17:01.108',-0.520,-0.165
'17:01.111',-0.490,-0.170
'17:01.114',-0.485,-0.175
'17:01.117',-0.480,-0.185
'17:01.119',-0.465,-0.190
'17:01.122',-0.465,-0.200
'17:01.125',-0.475,-0.210
'17:01.128',-0.460,-0.215
'17:01.131',-0.460,-0.210
'17:01.133',-0.455,-0.220
'17:01.136',-0.445,-0.210
'17:01.139',-0.440,-0.215
'17:01.142',-0.440,-0.205
'17:01.144',-0.415,-0.220
'17:01.147',-0.435,-0.230
'17:01.150',-0.430,-0.250
'17:01.153',-0.445,-0.255
'17:01.156',-0.445,-0.275
'17:01.158',-0.455,-0.280
'17:01.161',-0.460,-0.285
'17:01.164',-0.475,-0.280
'17:01.167',-0.470,-0.270
'17:01.169',-0.455,-0.280
'17:01.172',-0.450,-0.265
'17:01.175',-0.440,-0.275
'17:01.178',-0.440,-0.280
'17:01.181',-0.470,-0.280
'17:01.183',-0.475,-0.290
'17:01.186',-0.475,-0.295
'17:01.189',-0.485,-0.305
'17:01.192',-0.500,-0.310
'17:01.194',-0.500,-0.305
'17:01.197',-0.500,-0.305
'17:01.200',-0.505,-0.295
'17:01.203',-0.495,-0.280
'17:01.206',-0.485,-0.300
'17:01.208',-0.485,-0.275
'17:01.211',-0.490,-0.290
'17:01.214',-0.500,-0.295
'17:01.217',-0.505,-0.300
'17:01.219',-0.515,-0.305
'17:01.222',-0.515,-0.320
'17:01.225',-0.520,-0.320
'17:01.228',-0.525,-0.325
'17:01.231',-0.535,-0.310
'17:01.233',-0.535,-0.310
'17:01.236',-0.535,-0.295
'17:01.239',-0.535,-0.290
'17:01.242',-0.535,-0.290
'17:01.244',-0.535,-0.290
'17:01.247',-0.530,-0.295
'17:01.250',-0.535,-0.305
'17:01.253',-0.550,-0.305
'17:01.256',-0.550,-0.310
'17:01.258',-0.560,-0.295
'17:01.261',-0.560,-0.305
'17:01.264',-0.580,-0.290
'17:01.267',-0.565,-0.290
'17:01.269',-0.550,-0.290
'17:01.272',-0.545,-0.275
'17:01.275',-0.540,-0.265
'17:01.278',-0.535,-0.270
'17:01.281',-0.550,-0.260
'17:01.283',-0.545,-0.275
'17:01.286',-0.555,-0.280
'17:01.289',-0.560,-0.285
'17:01.292',-0.560,-0.295
'17:01.294',-0.555,-0.295
'17:01.297',-0.545,-0.285
'17:01.300',-0.550,-0.280
'17:01.303',-0.540,-0.260
'17:01.306',-0.530,-0.255
'17:01.308',-0.530,-0.255
'17:01.311',-0.520,-0.255
'17:01.314',-0.530,-0.260
'17:01.317',-0.535,-0.275
'17:01.319',-0.530,-0.270
'17:01.322',-0.530,-0.290
'17:01.325',-0.535,-0.280
'17:01.328',-0.525,-0.280
'17:01.331',-0.505,-0.270
'17:01.333',-0.515,-0.275
'17:01.336',-0.495,-0.270
'17:01.339',-0.485,-0.260
'17:01.342',-0.475,-0.255
'17:01.344',-0.470,-0.270
'17:01.347',-0.465,-0.260
'17:01.350',-0.470,-0.260
'17:01.353',-0.470,-0.255
'17:01.356',-0.470,-0.265
'17:01.358',-0.465,-0.260
'17:01.361',-0.475,-0.255
'17:01.364',-0.460,-0.230
'17:01.367',-0.445,-0.220
'17:01.369',-0.435,-0.215
'17:01.372',-0.420,-0.210
'17:01.375',-0.405,-0.185
'17:01.378',-0.390,-0.190
'17:01.381',-0.390,-0.200
'17:01.383',-0.360,-0.220
'17:01.386',-0.370,-0.230
'17:01.389',-0.370,-0.260
'17:01.392',-0.370,-0.295
'17:01.394',-0.370,-0.315
'17:01.397',-0.365,-0.325
'17:01.400',-0.390,-0.340
'17:01.403',-0.375,-0.345
'17:01.406',-0.390,-0.330
'17:01.408',-0.410,-0.320
'17:01.411',-0.410,-0.320
'17:01.414',-0.430,-0.310
'17:01.417',-0.450,-0.295
'17:01.419',-0.475,-0.290
'17:01.422',-0.480,-0.295
'17:01.425',-0.510,-0.295
'17:01.428',-0.525,-0.295
'17:01.431',-0.530,-0.285
'17:01.433',-0.545,-0.290
'17:01.436',-0.540,-0.265
'17:01.439',-0.540,-0.260
'17:01.442',-0.535,-0.265
'17:01.444',-0.515,-0.255
'17:01.447',-0.515,-0.270
'17:01.450',-0.515,-0.275
'17:01.453',-0.520,-0.290
'17:01.456',-0.520,-0.300
'17:01.458',-0.525,-0.295
'17:01.461',-0.525,-0.285
'17:01.464',-0.505,-0.285
'17:01.467',-0.505,-0.285
'17:01.469',-0.485,-0.275
'17:01.472',-0.475,-0.275
'17:01.475',-0.440,-0.275
'17:01.478',-0.410,-0.265
'17:01.481',-0.365,-0.280
'17:01.483',-0.305,-0.290
'17:01.486',-0.230,-0.305
'17:01.489',-0.130,-0.320
'17:01.492',-0.015,-0.335
'17:01.494',0.125,-0.335
'17:01.497',0.310,-0.350
'17:01.500',0.490,-0.370
'17:01.503',0.690,-0.435
'17:01.506',0.875,-0.500
'17:01.508',1.020,-0.605
'17:01.511',1.155,-0.730
'17:01.514',1.275,-0.860
'17:01.517',1.365,-1.000
'17:01.519',1.380,-1.135
'17:01.522',1.265,-1.260
'17:01.525',1.025,-1.370
'17:01.528',0.655,-1.445
'17:01.531',0.240,-1.490
'17:01.533',-0.145,-1.485
'17:01.536',-0.445,-1.450
'17:01.539',-0.630,-1.365
'17:01.542',-0.715,-1.260
'17:01.544',-0.730,-1.165
'17:01.547',-0.705,-1.055
'17:01.550',-0.680,-0.970
'17:01.553',-0.650,-0.890
'17:01.556',-0.665,-0.830
'17:01.558',-0.660,-0.770
'17:01.561',-0.665,-0.705
'17:01.564',-0.655,-0.630
'17:01.567',-0.665,-0.535
'17:01.569',-0.655,-0.465
'17:01.572',-0.650,-0.400
'17:01.575',-0.640,-0.335
'17:01.578',-0.645,-0.310
'17:01.581',-0.655,-0.305
'17:01.583',-0.660,-0.305
'17:01.586',-0.685,-0.300
'17:01.589',-0.675,-0.300
'17:01.592',-0.680,-0.305
'17:01.594',-0.695,-0.295
'17:01.597',-0.695,-0.275
'17:01.600',-0.695,-0.270
'17:01.603',-0.690,-0.260
'17:01.606',-0.690,-0.250
'17:01.608',-0.685,-0.240
'17:01.611',-0.680,-0.250
'17:01.614',-0.690,-0.260
'17:01.617',-0.695,-0.255
'17:01.619',-0.705,-0.255
'17:01.622',-0.710,-0.250
'17:01.625',-0.720,-0.250
'17:01.628',-0.725,-0.255
'17:01.631',-0.740,-0.255
'17:01.633',-0.735,-0.250
'17:01.636',-0.725,-0.240
'17:01.639',-0.730,-0.240
'17:01.642',-0.740,-0.220
'17:01.644',-0.745,-0.230
'17:01.647',-0.735,-0.230
'17:01.650',-0.745,-0.235
'17:01.653',-0.745,-0.250
'17:01.656',-0.750,-0.245
'17:01.658',-0.760,-0.260
'17:01.661',-0.760,-0.255
'17:01.664',-0.770,-0.240
'17:01.667',-0.765,-0.230
'17:01.669',-0.770,-0.230
'17:01.672',-0.765,-0.225
'17:01.675',-0.770,-0.215
'17:01.678',-0.765,-0.225
'17:01.681',-0.775,-0.230
'17:01.683',-0.780,-0.235
'17:01.686',-0.800,-0.250
'17:01.689',-0.810,-0.240
'17:01.692',-0.810,-0.240
'17:01.694',-0.820,-0.240
'17:01.697',-0.815,-0.235
'17:01.700',-0.815,-0.225
'17:01.703',-0.825,-0.215
'17:01.706',-0.830,-0.210
'17:01.708',-0.830,-0.205
'17:01.711',-0.810,-0.205
'17:01.714',-0.815,-0.200
'17:01.717',-0.830,-0.190
'17:01.719',-0.830,-0.210
'17:01.722',-0.840,-0.205
'17:01.725',-0.845,-0.210
'17:01.728',-0.855,-0.210
'17:01.731',-0.865,-0.195
'17:01.733',-0.860,-0.185
'17:01.736',-0.845,-0.175
'17:01.739',-0.835,-0.165
'17:01.742',-0.825,-0.160
'17:01.744',-0.835,-0.160
'17:01.747',-0.815,-0.150
'17:01.750',-0.835,-0.155
'17:01.753',-0.830,-0.160
'17:01.756',-0.835,-0.170
'17:01.758',-0.830,-0.175
'17:01.761',-0.825,-0.160
'17:01.764',-0.815,-0.155
'17:01.767',-0.830,-0.145
'17:01.769',-0.810,-0.140
'17:01.772',-0.790,-0.125
'17:01.775',-0.770,-0.115
'17:01.778',-0.755,-0.120
'17:01.781',-0.750,-0.120
'17:01.783',-0.730,-0.130
'17:01.786',-0.725,-0.145
'17:01.789',-0.710,-0.165
'17:01.792',-0.695,-0.160
'17:01.794',-0.690,-0.160
'17:01.797',-0.670,-0.155
'17:01.800',-0.645,-0.150
'17:01.803',-0.635,-0.150
'17:01.806',-0.610,-0.160
'17:01.808',-0.595,-0.155
'17:01.811',-0.580,-0.175
'17:01.814',-0.600,-0.180
'17:01.817',-0.590,-0.190
'17:01.819',-0.570,-0.200
'17:01.822',-0.585,-0.215
'17:01.825',-0.590,-0.230
'17:01.828',-0.580,-0.245
'17:01.831',-0.580,-0.245
'17:01.833',-0.585,-0.245
'17:01.836',-0.575,-0.235
'17:01.839',-0.565,-0.240
'17:01.842',-0.560,-0.235
'17:01.844',-0.550,-0.255
'17:01.847',-0.560,-0.250
'17:01.850',-0.570,-0.270
'17:01.853',-0.580,-0.290
'17:01.856',-0.590,-0.290
'17:01.858',-0.590,-0.290
'17:01.861',-0.605,-0.305
'17:01.864',-0.595,-0.300
'17:01.867',-0.590,-0.295
'17:01.869',-0.595,-0.285
'17:01.872',-0.590,-0.280
'17:01.875',-0.595,-0.275
'17:01.878',-0.580,-0.280
'17:01.881',-0.590,-0.290
'17:01.883',-0.590,-0.300
'17:01.886',-0.595,-0.305
'17:01.889',-0.595,-0.320
'17:01.892',-0.620,-0.320
'17:01.894',-0.615,-0.310
'17:01.897',-0.625,-0.315
'17:01.900',-0.625,-0.310
'17:01.903',-0.615,-0.300
'17:01.906',-0.615,-0.300
'17:01.908',-0.615,-0.300
'17:01.911',-0.600,-0.295
'17:01.914',-0.615,-0.310
'17:01.917',-0.605,-0.305
'17:01.919',-0.625,-0.315
'17:01.922',-0.625,-0.320
'17:01.925',-0.635,-0.320
'17:01.928',-0.640,-0.320
'17:01.931',-0.650,-0.330
'17:01.933',-0.645,-0.320
'17:01.936',-0.640,-0.300
'17:01.939',-0.635,-0.290
'17:01.942',-0.635,-0.280
'17:01.944',-0.630,-0.285
'17:01.947',-0.630,-0.290
'17:01.950',-0.635,-0.290
'17:01.953',-0.645,-0.295
'17:01.956',-0.650,-0.305
'17:01.958',-0.660,-0.305
'17:01.961',-0.660,-0.310
'17:01.964',-0.665,-0.300
'17:01.967',-0.655,-0.290
'17:01.969',-0.655,-0.285
'17:01.972',-0.650,-0.285
'17:01.975',-0.640,-0.270
'17:01.978',-0.635,-0.275
'17:01.981',-0.635,-0.290
'17:01.983',-0.630,-0.275
'17:01.986',-0.640,-0.285
'17:01.989',-0.635,-0.290
'17:01.992',-0.650,-0.300
'17:01.994',-0.645,-0.305
'17:01.997',-0.635,-0.285
'17:02.000',-0.635,-0.290
'17:02.003',-0.615,-0.280
'17:02.006',-0.605,-0.275
'17:02.008',-0.595,-0.280
'17:02.011',-0.590,-0.265
'17:02.014',-0.580,-0.270
'17:02.017',-0.575,-0.270
'17:02.019',-0.575,-0.290
'17:02.022',-0.570,-0.290
'17:02.025',-0.580,-0.295
'17:02.028',-0.585,-0.290
'17:02.031',-0.575,-0.275
'17:02.033',-0.575,-0.260
'17:02.036',-0.550,-0.245
'17:02.039',-0.535,-0.230
'17:02.042',-0.525,-0.215
'17:02.044',-0.520,-0.215
'17:02.047',-0.495,-0.205
'17:02.050',-0.475,-0.195
'17:02.053',-0.470,-0.215
'17:02.056',-0.465,-0.225
'17:02.058',-0.445,-0.240
'17:02.061',-0.450,-0.250
'17:02.064',-0.440,-0.270
'17:02.067',-0.440,-0.275
'17:02.069',-0.445,-0.300
'17:02.072',-0.455,-0.330
'17:02.075',-0.445,-0.330
'17:02.078',-0.440,-0.350
'17:02.081',-0.455,-0.355
'17:02.083',-0.460,-0.355
'17:02.086',-0.485,-0.345
'17:02.089',-0.495,-0.335
'17:02.092',-0.525,-0.330
'17:02.094',-0.540,-0.330
'17:02.097',-0.550,-0.320
'17:02.100',-0.565,-0.290
'17:02.103',-0.580,-0.285
'17:02.106',-0.580,-0.280
'17:02.108',-0.595,-0.270
'17:02.111',-0.600,-0.265
'17:02.114',-0.600,-0.275
'17:02.117',-0.610,-0.285
'17:02.119',-0.615,-0.295
'17:02.122',-0.615,-0.295
'17:02.125',-0.615,-0.305
'17:02.128',-0.630,-0.295
'17:02.131',-0.615,-0.290
'17:02.133',-0.625,-0.285
'17:02.136',-0.625,-0.280
'17:02.139',-0.615,-0.265
'17:02.142',-0.585,-0.255
'17:02.144',-0.575,-0.265
'17:02.147',-0.575,-0.275
'17:02.150',-0.560,-0.270
'17:02.153',-0.575,-0.295
'17:02.156',-0.560,-0.300
'17:02.158',-0.550,-0.310
'17:02.161',-0.545,-0.310
'17:02.164',-0.530,-0.310
'17:02.167',-0.515,-0.305
'17:02.169',-0.475,-0.290
'17:02.172',-0.430,-0.290
'17:02.175',-0.355,-0.280
'17:02.178',-0.260,-0.290
'17:02.181',-0.150,-0.310
'17:02.183',-0.040,-0.320
'17:02.186',0.080,-0.345
'17:02.189',0.235,-0.355
'17:02.192',0.405,-0.390
'17:02.194',0.575,-0.445
'17:02.197',0.750,-0.510
'17:02.200',0.890,-0.595
'17:02.203',1.035,-0.710
'17:02.206',1.170,-0.850
'17:02.208',1.285,-0.985
'17:02.211',1.340,-1.125
'17:02.214',1.250,-1.260
'17:02.217',1.020,-1.385
'17:02.219',0.635,-1.485
'17:02.222',0.210,-1.535
'17:02.225',-0.210,-1.540
'17:02.228',-0.545,-1.495
'17:02.231',-0.745,-1.400
'17:02.233',-0.835,-1.280
'17:02.236',-0.835,-1.145
'17:02.239',-0.795,-1.015
'17:02.242',-0.735,-0.895
'17:02.244',-0.685,-0.805
'17:02.247',-0.670,-0.725
'17:02.250',-0.665,-0.655
'17:02.253',-0.665,-0.585
'17:02.256',-0.665,-0.510
'17:02.258',-0.690,-0.445
'17:02.261',-0.705,-0.370
'17:02.264',-0.705,-0.325
'17:02.267',-0.715,-0.305
'17:02.269',-0.705,-0.290
'17:02.272',-0.700,-0.285
'17:02.275',-0.705,-0.275
'17:02.278',-0.690,-0.275
'17:02.281',-0.705,-0.270
'17:02.283',-0.700,-0.275
'17:02.286',-0.705,-0.270
'17:02.289',-0.715,-0.280
'17:02.292',-0.720,-0.260
'17:02.294',-0.725,-0.275
'17:02.297',-0.725,-0.265
'17:02.300',-0.720,-0.260
'17:02.303',-0.735,-0.255
'17:02.306',-0.735,-0.240
'17:02.308',-0.725,-0.240
'17:02.311',-0.730,-0.235
'17:02.314',-0.720,-0.235
'17:02.317',-0.730,-0.235
'17:02.319',-0.740,-0.250
'17:02.322',-0.735,-0.250
'17:02.325',-0.745,-0.265
'17:02.328',-0.750,-0.250
'17:02.331',-0.765,-0.255
'17:02.333',-0.755,-0.255
'17:02.336',-0.755,-0.240
'17:02.339',-0.760,-0.225
'17:02.342',-0.750,-0.220
'17:02.344',-0.750,-0.220
'17:02.347',-0.750,-0.235
'17:02.350',-0.750,-0.240
'17:02.353',-0.750,-0.240
'17:02.356',-0.755,-0.250
'17:02.358',-0.760,-0.255
'17:02.361',-0.770,-0.260
'17:02.364',-0.775,-0.235
'17:02.367',-0.770,-0.240
'17:02.369',-0.770,-0.230
'17:02.372',-0.785,-0.225
'17:02.375',-0.780,-0.225
'17:02.378',-0.775,-0.220
'17:02.381',-0.775,-0.240
'17:02.383',-0.775,-0.225
'17:02.386',-0.780,-0.225
'17:02.389',-0.800,-0.235
'17:02.392',-0.805,-0.240
'17:02.394',-0.815,-0.230
'17:02.397',-0.820,-0.230
'17:02.400',-0.820,-0.220
'17:02.403',-0.820,-0.205
'17:02.406',-0.825,-0.200
'17:02.408',-0.835,-0.185
'17:02.411',-0.825,-0.180
'17:02.414',-0.825,-0.195
'17:02.417',-0.830,-0.190
'17:02.419',-0.835,-0.190
'17:02.422',-0.850,-0.190
'17:02.425',-0.835,-0.200
'17:02.428',-0.840,-0.190
'17:02.431',-0.835,-0.180
'17:02.433',-0.825,-0.180
'17:02.436',-0.820,-0.160
'17:02.439',-0.805,-0.145
'17:02.442',-0.795,-0.130
'17:02.444',-0.770,-0.140
'17:02.447',-0.770,-0.135
'17:02.450',-0.760,-0.140
'17:02.453',-0.760,-0.145
'17:02.456',-0.760,-0.130
'17:02.458',-0.760,-0.145
'17:02.461',-0.745,-0.140
'17:02.464',-0.740,-0.125
'17:02.467',-0.705,-0.120
'17:02.469',-0.685,-0.120
'17:02.472',-0.660,-0.125
'17:02.475',-0.645,-0.120
'17:02.478',-0.625,-0.135
'17:02.481',-0.610,-0.125
'17:02.483',-0.595,-0.135
'17:02.486',-0.585,-0.150
'17:02.489',-0.605,-0.160
'17:02.492',-0.580,-0.160
'17:02.494',-0.570,-0.175
'17:02.497',-0.570,-0.180
'17:02.500',-0.555,-0.175
'17:02.503',-0.540,-0.175
'17:02.506',-0.535,-0.175
'17:02.508',-0.520,-0.180
'17:02.511',-0.515,-0.200
'17:02.514',-0.510,-0.200
'17:02.517',-0.510,-0.215
'17:02.519',-0.510,-0.225
'17:02.522',-0.510,-0.230
'17:02.525',-0.515,-0.240
'17:02.528',-0.520,-0.250
'17:02.531',-0.520,-0.240
'17:02.533',-0.530,-0.240
'17:02.536',-0.520,-0.235
'17:02.539',-0.520,-0.230
'17:02.542',-0.510,-0.230
'17:02.544',-0.500,-0.235
'17:02.547',-0.500,-0.255
'17:02.550',-0.500,-0.255
'17:02.553',-0.530,-0.270
'17:02.556',-0.520,-0.260
'17:02.558',-0.520,-0.275
'17:02.561',-0.520,-0.280
'17:02.564',-0.520,-0.270
'17:02.567',-0.530,-0.270
'17:02.569',-0.530,-0.265
'17:02.572',-0.530,-0.260
'17:02.575',-0.550,-0.260
'17:02.578',-0.535,-0.265
'17:02.581',-0.520,-0.265
'17:02.583',-0.530,-0.270
'17:02.586',-0.530,-0.285
'17:02.589',-0.545,-0.275
'17:02.592',-0.545,-0.290
'17:02.594',-0.555,-0.285
'17:02.597',-0.550,-0.285
'17:02.600',-0.550,-0.295
'17:02.603',-0.550,-0.280
'17:02.606',-0.545,-0.270
'17:02.608',-0.560,-0.275
'17:02.611',-0.555,-0.255
'17:02.614',-0.550,-0.270
'17:02.617',-0.555,-0.275
'17:02.619',-0.565,-0.270
'17:02.622',-0.575,-0.290
'17:02.625',-0.595,-0.295
'17:02.628',-0.585,-0.290
'17:02.631',-0.580,-0.295
'17:02.633',-0.580,-0.290
'17:02.636',-0.580,-0.265
'17:02.639',-0.575,-0.265
'17:02.642',-0.580,-0.255
'17:02.644',-0.565,-0.255
'17:02.647',-0.575,-0.260
'17:02.650',-0.575,-0.260
'17:02.653',-0.580,-0.280
'17:02.656',-0.595,-0.280
'17:02.658',-0.595,-0.290
'17:02.661',-0.615,-0.275
'17:02.664',-0.595,-0.255
'17:02.667',-0.600,-0.250
'17:02.669',-0.595,-0.250
'17:02.672',-0.590,-0.245
'17:02.675',-0.570,-0.230
'17:02.678',-0.570,-0.240
'17:02.681',-0.575,-0.250
'17:02.683',-0.565,-0.260
'17:02.686',-0.570,-0.265
'17:02.689',-0.570,-0.260
'17:02.692',-0.570,-0.270
'17:02.694',-0.580,-0.260
'17:02.697',-0.570,-0.250
'17:02.700',-0.570,-0.250
'17:02.703',-0.555,-0.255
'17:02.706',-0.535,-0.240
'17:02.708',-0.520,-0.235
'17:02.711',-0.510,-0.225
'17:02.714',-0.510,-0.245
'17:02.717',-0.500,-0.235
'17:02.719',-0.515,-0.240
'17:02.722',-0.530,-0.240
'17:02.725',-0.520,-0.235
'17:02.728',-0.510,-0.240
'17:02.731',-0.500,-0.220
'17:02.733',-0.485,-0.220
'17:02.736',-0.485,-0.200
'17:02.739',-0.455,-0.190
'17:02.742',-0.445,-0.185
'17:02.744',-0.420,-0.180
'17:02.747',-0.415,-0.180
'17:02.750',-0.410,-0.200
'17:02.753',-0.405,-0.200
'17:02.756',-0.400,-0.210
'17:02.758',-0.390,-0.230
'17:02.761',-0.410,-0.245
'17:02.764',-0.400,-0.250
'17:02.767',-0.405,-0.250
'17:02.769',-0.390,-0.250
'17:02.772',-0.400,-0.260
'17:02.775',-0.390,-0.285
'17:02.778',-0.380,-0.310
'17:02.781',-0.385,-0.320
'17:02.783',-0.395,-0.330
'17:02.786',-0.405,-0.335
'17:02.789',-0.435,-0.320
'17:02.792',-0.445,-0.320
'17:02.794',-0.470,-0.305
'17:02.797',-0.485,-0.290
'17:02.800',-0.495,-0.280
'17:02.803',-0.495,-0.260
'17:02.806',-0.510,-0.260
'17:02.808',-0.530,-0.260
'17:02.811',-0.520,-0.255
'17:02.814',-0.530,-0.260
'17:02.817',-0.540,-0.260
'17:02.819',-0.555,-0.265
'17:02.822',-0.550,-0.270
'17:02.825',-0.555,-0.270
'17:02.828',-0.565,-0.270
'17:02.831',-0.565,-0.265
'17:02.833',-0.555,-0.255
'17:02.836',-0.550,-0.255
'17:02.839',-0.540,-0.255
'17:02.842',-0.540,-0.250
'17:02.844',-0.535,-0.245
'17:02.847',-0.540,-0.265
'17:02.850',-0.515,-0.265
'17:02.853',-0.510,-0.275
'17:02.856',-0.515,-0.285
'17:02.858',-0.495,-0.280
'17:02.861',-0.490,-0.290
'17:02.864',-0.470,-0.285
'17:02.867',-0.415,-0.280
'17:02.869',-0.360,-0.285
'17:02.872',-0.285,-0.280
'17:02.875',-0.180,-0.280
'17:02.878',-0.070,-0.270
'17:02.881',0.055,-0.280
'17:02.883',0.225,-0.300
'17:02.886',0.415,-0.310
'17:02.889',0.610,-0.340
'17:02.892',0.805,-0.400
'17:02.894',0.955,-0.455
'17:02.897',1.080,-0.555
'17:02.900',1.180,-0.640
'17:02.903',1.310,-0.735
'17:02.906',1.405,-0.855
'17:02.908',1.405,-0.970
'17:02.911',1.235,-1.090
'17:02.914',0.930,-1.210
'17:02.917',0.495,-1.285
'17:02.919',0.010,-1.330
'17:02.922',-0.415,-1.310
'17:02.925',-0.720,-1.260
'17:02.928',-0.885,-1.170
'17:02.931',-0.920,-1.055
'17:02.933',-0.860,-0.940
'17:02.936',-0.790,-0.835
'17:02.939',-0.700,-0.735
'17:02.942',-0.635,-0.660
'17:02.944',-0.625,-0.605
'17:02.947',-0.615,-0.555
'17:02.950',-0.615,-0.505
'17:02.953',-0.620,-0.465
'17:02.956',-0.630,-0.400
'17:02.958',-0.660,-0.360
'17:02.961',-0.665,-0.335
'17:02.964',-0.665,-0.320
'17:02.967',-0.670,-0.295
'17:02.969',-0.665,-0.285
'17:02.972',-0.650,-0.280
'17:02.975',-0.645,-0.260
'17:02.978',-0.645,-0.260
'17:02.981',-0.640,-0.275
'17:02.983',-0.645,-0.265
'17:02.986',-0.655,-0.270
'17:02.989',-0.655,-0.265
'17:02.992',-0.675,-0.265
'17:02.994',-0.690,-0.255
'17:02.997',-0.690,-0.260
'17:03.000',-0.690,-0.245
'17:03.003',-0.680,-0.245
'17:03.006',-0.680,-0.235
'17:03.008',-0.660,-0.225
'17:03.011',-0.665,-0.220
'17:03.014',-0.670,-0.230
'17:03.017',-0.675,-0.230
'17:03.019',-0.685,-0.245
'17:03.022',-0.695,-0.255
'17:03.025',-0.700,-0.255
'17:03.028',-0.715,-0.260
'17:03.031',-0.720,-0.255
'17:03.033',-0.730,-0.255
'17:03.036',-0.710,-0.240
'17:03.039',-0.715,-0.225
'17:03.042',-0.715,-0.220
'17:03.044',-0.715,-0.215
'17:03.047',-0.715,-0.235
'17:03.050',-0.715,-0.225
'17:03.053',-0.720,-0.235
'17:03.056',-0.730,-0.250
'17:03.058',-0.735,-0.250
'17:03.061',-0.750,-0.245
'17:03.064',-0.760,-0.225
'17:03.067',-0.770,-0.235
'17:03.069',-0.760,-0.225
'17:03.072',-0.760,-0.195
'17:03.075',-0.765,-0.205
'17:03.078',-0.770,-0.205
'17:03.081',-0.770,-0.215
'17:03.083',-0.750,-0.210
'17:03.086',-0.790,-0.210
'17:03.089',-0.795,-0.210
'17:03.092',-0.780,-0.225
'17:03.094',-0.790,-0.230
'17:03.097',-0.805,-0.215
'17:03.100',-0.805,-0.200
'17:03.103',-0.795,-0.195
'17:03.106',-0.790,-0.180
'17:03.108',-0.775,-0.165
'17:03.111',-0.770,-0.170
'17:03.114',-0.770,-0.175
'17:03.117',-0.755,-0.175
'17:03.119',-0.755,-0.170
'17:03.122',-0.760,-0.165
'17:03.125',-0.765,-0.175
'17:03.128',-0.760,-0.170
'17:03.131',-0.745,-0.155
'17:03.133',-0.730,-0.150
'17:03.136',-0.730,-0.130
'17:03.139',-0.710,-0.120
'17:03.142',-0.690,-0.125
'17:03.144',-0.670,-0.130
'17:03.147',-0.660,-0.135
'17:03.150',-0.655,-0.130
'17:03.153',-0.635,-0.140
'17:03.156',-0.620,-0.150
'17:03.158',-0.615,-0.160
'17:03.161',-0.605,-0.160
'17:03.164',-0.585,-0.160
'17:03.167',-0.570,-0.165
'17:03.169',-0.550,-0.145
'17:03.172',-0.540,-0.155
'17:03.175',-0.515,-0.160
'17:03.178',-0.500,-0.165
'17:03.181',-0.485,-0.175
'17:03.183',-0.475,-0.180
'17:03.186',-0.480,-0.185
'17:03.189',-0.475,-0.195
'17:03.192',-0.480,-0.220
'17:03.194',-0.485,-0.215
'17:03.197',-0.495,-0.220
'17:03.200',-0.490,-0.220
'17:03.203',-0.480,-0.215
'17:03.206',-0.470,-0.220
'17:03.208',-0.470,-0.225
'17:03.211',-0.460,-0.220
'17:03.214',-0.465,-0.240
'17:03.217',-0.465,-0.235
'17:03.219',-0.465,-0.255
'17:03.222',-0.480,-0.260
'17:03.225',-0.490,-0.265
'17:03.228',-0.495,-0.270
'17:03.231',-0.505,-0.260
'17:03.233',-0.500,-0.270
'17:03.236',-0.510,-0.255
'17:03.239',-0.510,-0.250
'17:03.242',-0.510,-0.255
'17:03.244',-0.495,-0.250
'17:03.247',-0.500,-0.265
'17:03.250',-0.495,-0.275
'17:03.253',-0.500,-0.270
'17:03.256',-0.510,-0.285
'17:03.258',-0.520,-0.295
'17:03.261',-0.525,-0.285
'17:03.264',-0.520,-0.295
'17:03.267',-0.525,-0.285
'17:03.269',-0.520,-0.265
'17:03.272',-0.510,-0.275
'17:03.275',-0.515,-0.250
'17:03.278',-0.510,-0.260
'17:03.281',-0.520,-0.260
'17:03.283',-0.525,-0.270
'17:03.286',-0.525,-0.275
'17:03.289',-0.540,-0.275
'17:03.292',-0.540,-0.295
'17:03.294',-0.545,-0.290
'17:03.297',-0.550,-0.280
'17:03.300',-0.555,-0.275
'17:03.303',-0.545,-0.270
'17:03.306',-0.550,-0.270
'17:03.308',-0.545,-0.260
'17:03.311',-0.530,-0.255
'17:03.314',-0.545,-0.270
'17:03.317',-0.550,-0.260
'17:03.319',-0.555,-0.275
'17:03.322',-0.560,-0.270
'17:03.325',-0.565,-0.270
'17:03.328',-0.575,-0.270
'17:03.331',-0.575,-0.265
'17:03.333',-0.570,-0.275
'17:03.336',-0.550,-0.260
'17:03.339',-0.550,-0.245
'17:03.342',-0.545,-0.245
'17:03.344',-0.540,-0.245
'17:03.347',-0.530,-0.255
'17:03.350',-0.535,-0.245
'17:03.353',-0.530,-0.260
'17:03.356',-0.540,-0.255
'17:03.358',-0.540,-0.270
'17:03.361',-0.555,-0.250
'17:03.364',-0.540,-0.260
'17:03.367',-0.540,-0.255
'17:03.369',-0.530,-0.245
'17:03.372',-0.515,-0.240
'17:03.375',-0.515,-0.235
'17:03.378',-0.500,-0.240
'17:03.381',-0.495,-0.235
'17:03.383',-0.495,-0.240
'17:03.386',-0.490,-0.240
'17:03.389',-0.490,-0.255
'17:03.392',-0.490,-0.260
'17:03.394',-0.490,-0.250
'17:03.397',-0.480,-0.240
'17:03.400',-0.470,-0.220
'17:03.403',-0.460,-0.210
'17:03.406',-0.455,-0.195
'17:03.408',-0.435,-0.200
'17:03.411',-0.420,-0.180
'17:03.414',-0.425,-0.185
'17:03.417',-0.410,-0.190
'17:03.419',-0.395,-0.190
'17:03.422',-0.385,-0.200
'17:03.425',-0.390,-0.210
'17:03.428',-0.370,-0.220
'17:03.431',-0.360,-0.220
'17:03.433',-0.355,-0.230
'17:03.436',-0.335,-0.240
'17:03.439',-0.320,-0.245
'17:03.442',-0.320,-0.260
'17:03.444',-0.315,-0.280
'17:03.447',-0.320,-0.305
'17:03.450',-0.325,-0.310
'17:03.453',-0.340,-0.325
'17:03.456',-0.350,-0.340
'17:03.458',-0.340,-0.330
'17:03.461',-0.355,-0.325
'17:03.464',-0.335,-0.325
'17:03.467',-0.305,-0.325
'17:03.469',-0.280,-0.330
'17:03.472',-0.240,-0.345
'17:03.475',-0.195,-0.350
'17:03.478',-0.135,-0.370
'17:03.481',-0.065,-0.405
'17:03.483',0.005,-0.450
'17:03.486',0.105,-0.480
'17:03.489',0.195,-0.540
'17:03.492',0.340,-0.585
'17:03.494',0.510,-0.640
'17:03.497',0.685,-0.695
'17:03.500',0.875,-0.735
'17:03.503',1.070,-0.785
'17:03.506',1.255,-0.795
'17:03.508',1.445,-0.815
'17:03.511',1.585,-0.800
'17:03.514',1.680,-0.765
'17:03.517',1.725,-0.705
'17:03.519',1.735,-0.620
'17:03.522',1.685,-0.505
'17:03.525',1.630,-0.400
'17:03.528',1.555,-0.280
'17:03.531',1.465,-0.150
'17:03.533',1.350,-0.040
'17:03.536',1.215,0.080
'17:03.539',1.040,0.185
'17:03.542',0.835,0.275
'17:03.544',0.585,0.350
'17:03.547',0.310,0.395
'17:03.550',0.065,0.415
'17:03.553',-0.165,0.395
'17:03.556',-0.335,0.340
'17:03.558',-0.455,0.270
'17:03.561',-0.530,0.180
'17:03.564',-0.575,0.090
'17:03.567',-0.595,0.010
'17:03.569',-0.605,-0.055
'17:03.572',-0.620,-0.095
'17:03.575',-0.630,-0.115
'17:03.578',-0.640,-0.150
'17:03.581',-0.665,-0.175
'17:03.583',-0.690,-0.180
'17:03.586',-0.710,-0.200
'17:03.589',-0.715,-0.210
'17:03.592',-0.725,-0.220
'17:03.594',-0.750,-0.220
'17:03.597',-0.760,-0.230
'17:03.600',-0.775,-0.225
'17:03.603',-0.780,-0.215
'17:03.606',-0.780,-0.220
'17:03.608',-0.790,-0.210
'17:03.611',-0.780,-0.215
'17:03.614',-0.780,-0.225
'17:03.617',-0.800,-0.225
'17:03.619',-0.795,-0.235
'17:03.622',-0.820,-0.250
'17:03.625',-0.820,-0.250
'17:03.628',-0.830,-0.250
'17:03.631',-0.840,-0.245
'17:03.633',-0.845,-0.240
'17:03.636',-0.855,-0.235
'17:03.639',-0.855,-0.235
'17:03.642',-0.860,-0.230
'17:03.644',-0.860,-0.220
'17:03.647',-0.880,-0.235
'17:03.650',-0.880,-0.245
'17:03.653',-0.900,-0.245
'17:03.656',-0.910,-0.245
'17:03.658',-0.920,-0.250
'17:03.661',-0.930,-0.255
'17:03.664',-0.940,-0.260
'17:03.667',-0.965,-0.245
'17:03.669',-0.960,-0.240
'17:03.672',-0.975,-0.235
'17:03.675',-0.990,-0.235
'17:03.678',-0.980,-0.230
'17:03.681',-1.015,-0.235
'17:03.683',-1.035,-0.240
'17:03.686',-1.035,-0.245
'17:03.689',-1.070,-0.260
'17:03.692',-1.085,-0.255
'17:03.694',-1.115,-0.270
'17:03.697',-1.130,-0.255
'17:03.700',-1.155,-0.255
'17:03.703',-1.160,-0.260
'17:03.706',-1.175,-0.250
'17:03.708',-1.180,-0.245
'17:03.711',-1.175,-0.240
'17:03.714',-1.185,-0.260
'17:03.717',-1.200,-0.265
'17:03.719',-1.215,-0.275
'17:03.722',-1.230,-0.280
'17:03.725',-1.250,-0.300
'17:03.728',-1.255,-0.305
'17:03.731',-1.260,-0.295
'17:03.733',-1.265,-0.300
'17:03.736',-1.250,-0.310
'17:03.739',-1.260,-0.310
'17:03.742',-1.255,-0.315
'17:03.744',-1.250,-0.305
'17:03.747',-1.230,-0.330
'17:03.750',-1.230,-0.345
'17:03.753',-1.230,-0.365
'17:03.756',-1.225,-0.380
'17:03.758',-1.210,-0.400
'17:03.761',-1.195,-0.405
'17:03.764',-1.190,-0.405
'17:03.767',-1.160,-0.400
'17:03.769',-1.135,-0.405
'17:03.772',-1.110,-0.400
'17:03.775',-1.085,-0.395
'17:03.778',-1.060,-0.400
'17:03.781',-1.045,-0.420
'17:03.783',-1.020,-0.440
'17:03.786',-0.990,-0.445
'17:03.789',-0.980,-0.450
'17:03.792',-0.950,-0.455
'17:03.794',-0.920,-0.460
'17:03.797',-0.900,-0.455
'17:03.800',-0.880,-0.460
'17:03.803',-0.840,-0.455
'17:03.806',-0.815,-0.440
'17:03.808',-0.780,-0.440
'17:03.811',-0.760,-0.435
'17:03.814',-0.740,-0.440
'17:03.817',-0.710,-0.435
'17:03.819',-0.705,-0.425
'17:03.822',-0.700,-0.420
'17:03.825',-0.690,-0.435
'17:03.828',-0.670,-0.420
'17:03.831',-0.660,-0.420
'17:03.833',-0.660,-0.405
'17:03.836',-0.630,-0.390
'17:03.839',-0.615,-0.375
'17:03.842',-0.610,-0.350
'17:03.844',-0.610,-0.355
'17:03.847',-0.605,-0.340
'17:03.850',-0.610,-0.345
'17:03.853',-0.600,-0.350
'17:03.856',-0.605,-0.345
'17:03.858',-0.610,-0.345
'17:03.861',-0.605,-0.350
'17:03.864',-0.615,-0.315
'17:03.867',-0.610,-0.315
'17:03.869',-0.610,-0.310
'17:03.872',-0.605,-0.300
'17:03.875',-0.600,-0.300
'17:03.878',-0.595,-0.290
'17:03.881',-0.595,-0.290
'17:03.883',-0.605,-0.285
'17:03.886',-0.610,-0.300
'17:03.889',-0.615,-0.300
'17:03.892',-0.620,-0.300
'17:03.894',-0.630,-0.305
'17:03.897',-0.640,-0.295
'17:03.900',-0.650,-0.295
'17:03.903',-0.645,-0.290
'17:03.906',-0.640,-0.290
'17:03.908',-0.625,-0.275
'17:03.911',-0.625,-0.260
'17:03.914',-0.625,-0.275
'17:03.917',-0.625,-0.290
'17:03.919',-0.630,-0.295
'17:03.922',-0.650,-0.295
'17:03.925',-0.655,-0.305
'17:03.928',-0.665,-0.300
'17:03.931',-0.660,-0.295
'17:03.933',-0.655,-0.290
'17:03.936',-0.655,-0.290
'17:03.939',-0.650,-0.280
'17:03.942',-0.650,-0.275
'17:03.944',-0.640,-0.280
'17:03.947',-0.635,-0.290
'17:03.950',-0.650,-0.295
'17:03.953',-0.645,-0.295
'17:03.956',-0.640,-0.300
'17:03.958',-0.655,-0.305
'17:03.961',-0.650,-0.310
'17:03.964',-0.650,-0.310
'17:03.967',-0.645,-0.315
'17:03.969',-0.630,-0.305
'17:03.972',-0.630,-0.290
'17:03.975',-0.615,-0.295
'17:03.978',-0.600,-0.290
'17:03.981',-0.605,-0.300
'17:03.983',-0.605,-0.310
'17:03.986',-0.600,-0.300
'17:03.989',-0.605,-0.300
'17:03.992',-0.610,-0.310
'17:03.994',-0.610,-0.320
'17:03.997',-0.605,-0.310
'17:04.000',-0.600,-0.310
'17:04.003',-0.590,-0.305
'17:04.006',-0.580,-0.290
'17:04.008',-0.580,-0.285
'17:04.011',-0.570,-0.275
'17:04.014',-0.560,-0.290
'17:04.017',-0.570,-0.295
'17:04.019',-0.575,-0.300
'17:04.022',-0.565,-0.315
'17:04.025',-0.560,-0.315
'17:04.028',-0.570,-0.315
'17:04.031',-0.575,-0.300
'17:04.033',-0.565,-0.305
'17:04.036',-0.565,-0.295
'17:04.039',-0.560,-0.285
'17:04.042',-0.550,-0.265
'17:04.044',-0.540,-0.270
'17:04.047',-0.535,-0.285
'17:04.050',-0.535,-0.280
'17:04.053',-0.545,-0.295
'17:04.056',-0.535,-0.295
'17:04.058',-0.545,-0.280
'17:04.061',-0.545,-0.285
'17:04.064',-0.545,-0.285
'17:04.067',-0.540,-0.280
'17:04.069',-0.535,-0.265
'17:04.072',-0.525,-0.275
'17:04.075',-0.505,-0.250
'17:04.078',-0.505,-0.255
'17:04.081',-0.500,-0.245
'17:04.083',-0.490,-0.235
'17:04.086',-0.495,-0.250
'17:04.089',-0.485,-0.240
'17:04.092',-0.495,-0.245
'17:04.094',-0.485,-0.230
'17:04.097',-0.475,-0.215
'17:04.100',-0.455,-0.210
'17:04.103',-0.445,-0.190
'17:04.106',-0.430,-0.195
'17:04.108',-0.405,-0.190
'17:04.111',-0.395,-0.195
'17:04.114',-0.385,-0.220
'17:04.117',-0.380,-0.230
'17:04.119',-0.390,-0.240
'17:04.122',-0.405,-0.270
'17:04.125',-0.410,-0.300
'17:04.128',-0.425,-0.315
'17:04.131',-0.440,-0.340
'17:04.133',-0.435,-0.340
'17:04.136',-0.445,-0.325
'17:04.139',-0.455,-0.320
'17:04.142',-0.470,-0.315
'17:04.144',-0.465,-0.300
'17:04.147',-0.475,-0.300
'17:04.150',-0.495,-0.285
'17:04.153',-0.500,-0.280
'17:04.156',-0.520,-0.285
'17:04.158',-0.520,-0.285
'17:04.161',-0.545,-0.300
'17:04.164',-0.555,-0.285
'17:04.167',-0.570,-0.275
'17:04.169',-0.605,-0.260
'17:04.172',-0.595,-0.245
'17:04.175',-0.585,-0.245
'17:04.178',-0.575,-0.235
'17:04.181',-0.585,-0.245
'17:04.183',-0.560,-0.245
'17:04.186',-0.565,-0.265
'17:04.189',-0.575,-0.280
'17:04.192',-0.575,-0.290
'17:04.194',-0.570,-0.280
'17:04.197',-0.575,-0.275
'17:04.200',-0.580,-0.255
'17:04.203',-0.555,-0.250
'17:04.206',-0.540,-0.255
'17:04.208',-0.550,-0.250
'17:04.211',-0.525,-0.245
'17:04.214',-0.530,-0.260
'17:04.217',-0.520,-0.255
'17:04.219',-0.520,-0.275
'17:04.222',-0.510,-0.280
'17:04.225',-0.515,-0.285
'17:04.228',-0.495,-0.280
'17:04.231',-0.470,-0.285
'17:04.233',-0.440,-0.275
'17:04.236',-0.395,-0.290
'17:04.239',-0.325,-0.275
'17:04.242',-0.255,-0.275
'17:04.244',-0.155,-0.275
'17:04.247',-0.040,-0.280
'17:04.250',0.080,-0.290
'17:04.253',0.235,-0.315
'17:04.256',0.405,-0.340
'17:04.258',0.575,-0.390
'17:04.261',0.770,-0.450
'17:04.264',0.910,-0.520
'17:04.267',1.050,-0.620
'17:04.269',1.170,-0.720
'17:04.272',1.300,-0.830
'17:04.275',1.430,-0.955
'17:04.278',1.495,-1.075
'17:04.281',1.400,-1.200
'17:04.283',1.125,-1.310
'17:04.286',0.720,-1.400
'17:04.289',0.250,-1.450
'17:04.292',-0.210,-1.445
'17:04.294',-0.565,-1.410
'17:04.297',-0.790,-1.320
'17:04.300',-0.860,-1.210
'17:04.303',-0.845,-1.095
'17:04.306',-0.785,-0.985
'17:04.308',-0.730,-0.905
'17:04.311',-0.675,-0.825
'17:04.314',-0.655,-0.760
'17:04.317',-0.665,-0.710
'17:04.319',-0.665,-0.655
'17:04.322',-0.670,-0.610
'17:04.325',-0.665,-0.545
'17:04.328',-0.695,-0.465
'17:04.331',-0.680,-0.405
'17:04.333',-0.680,-0.360
'17:04.336',-0.670,-0.325
'17:04.339',-0.680,-0.295
'17:04.342',-0.675,-0.285
'17:04.344',-0.665,-0.270
'17:04.347',-0.670,-0.270
'17:04.350',-0.680,-0.270
'17:04.353',-0.695,-0.270
'17:04.356',-0.695,-0.265
'17:04.358',-0.700,-0.275
'17:04.361',-0.710,-0.280
'17:04.364',-0.715,-0.270
'17:04.367',-0.715,-0.255
'17:04.369',-0.710,-0.250
'17:04.372',-0.700,-0.245
'17:04.375',-0.695,-0.230
'17:04.378',-0.690,-0.235
'17:04.381',-0.700,-0.230
'17:04.383',-0.700,-0.235
'17:04.386',-0.710,-0.255
'17:04.389',-0.705,-0.250
'17:04.392',-0.715,-0.250
'17:04.394',-0.725,-0.245
'17:04.397',-0.725,-0.250
'17:04.400',-0.730,-0.235
'17:04.403',-0.735,-0.225
'17:04.406',-0.730,-0.225
'17:04.408',-0.730,-0.210
'17:04.411',-0.745,-0.230
'17:04.414',-0.750,-0.220
'17:04.417',-0.745,-0.205
'17:04.419',-0.760,-0.225
'17:04.422',-0.770,-0.230
'17:04.425',-0.775,-0.230
'17:04.428',-0.770,-0.240
'17:04.431',-0.770,-0.230
'17:04.433',-0.780,-0.225
'17:04.436',-0.770,-0.220
'17:04.439',-0.770,-0.205
'17:04.442',-0.770,-0.205
'17:04.444',-0.760,-0.205
'17:04.447',-0.770,-0.200
'17:04.450',-0.785,-0.215
'17:04.453',-0.785,-0.225
'17:04.456',-0.790,-0.225
'17:04.458',-0.805,-0.230
'17:04.461',-0.810,-0.225
'17:04.464',-0.815,-0.220
'17:04.467',-0.815,-0.210
'17:04.469',-0.825,-0.190
'17:04.472',-0.825,-0.180
'17:04.475',-0.820,-0.165
'17:04.478',-0.820,-0.160
'17:04.481',-0.820,-0.170
'17:04.483',-0.820,-0.175
'17:04.486',-0.830,-0.175
'17:04.489',-0.835,-0.175
'17:04.492',-0.840,-0.175
'17:04.494',-0.855,-0.165
'17:04.497',-0.860,-0.160
'17:04.500',-0.855,-0.140
'17:04.503',-0.850,-0.135
'17:04.506',-0.835,-0.120
'17:04.508',-0.815,-0.125
'17:04.511',-0.790,-0.105
'17:04.514',-0.785,-0.110
'17:04.517',-0.780,-0.115
'17:04.519',-0.785,-0.110
'17:04.522',-0.775,-0.105
'17:04.525',-0.775,-0.095
'17:04.528',-0.765,-0.110
'17:04.531',-0.760,-0.110
'17:04.533',-0.745,-0.105
'17:04.536',-0.730,-0.090
'17:04.539',-0.710,-0.085
'17:04.542',-0.680,-0.070
'17:04.544',-0.660,-0.080
'17:04.547',-0.655,-0.095
'17:04.550',-0.640,-0.095
'17:04.553',-0.625,-0.100
'17:04.556',-0.625,-0.115
'17:04.558',-0.605,-0.130
'17:04.561',-0.595,-0.135
'17:04.564',-0.590,-0.130
'17:04.567',-0.565,-0.135
'17:04.569',-0.570,-0.130
'17:04.572',-0.550,-0.135
'17:04.575',-0.540,-0.130
'17:04.578',-0.530,-0.145
'17:04.581',-0.520,-0.165
'17:04.583',-0.530,-0.170
'17:04.586',-0.515,-0.185
'17:04.589',-0.525,-0.200
'17:04.592',-0.525,-0.210
'17:04.594',-0.535,-0.225
'17:04.597',-0.555,-0.230
'17:04.600',-0.555,-0.230
'17:04.603',-0.535,-0.215
'17:04.606',-0.525,-0.225
'17:04.608',-0.530,-0.225
'17:04.611',-0.525,-0.230
'17:04.614',-0.520,-0.240
'17:04.617',-0.520,-0.245
'17:04.619',-0.520,-0.250
'17:04.622',-0.545,-0.265
'17:04.625',-0.535,-0.270
'17:04.628',-0.545,-0.290
'17:04.631',-0.550,-0.275
'17:04.633',-0.545,-0.270
'17:04.636',-0.545,-0.275
'17:04.639',-0.545,-0.275
'17:04.642',-0.540,-0.250
'17:04.644',-0.530,-0.260
'17:04.647',-0.535,-0.275
'17:04.650',-0.540,-0.275
'17:04.653',-0.550,-0.305
'17:04.656',-0.560,-0.290
'17:04.658',-0.560,-0.300
'17:04.661',-0.565,-0.310
'17:04.664',-0.575,-0.305
'17:04.667',-0.575,-0.290
'17:04.669',-0.575,-0.285
'17:04.672',-0.575,-0.275
'17:04.675',-0.560,-0.285
'17:04.678',-0.565,-0.265
'17:04.681',-0.575,-0.280
'17:04.683',-0.570,-0.285
'17:04.686',-0.585,-0.285
'17:04.689',-0.590,-0.295
'17:04.692',-0.615,-0.295
'17:04.694',-0.615,-0.295
'17:04.697',-0.635,-0.290
'17:04.700',-0.630,-0.275
'17:04.703',-0.635,-0.265
'17:04.706',-0.620,-0.265
'17:04.708',-0.620,-0.255
'17:04.711',-0.605,-0.250
'17:04.714',-0.605,-0.255
'17:04.717',-0.615,-0.260
'17:04.719',-0.615,-0.270
'17:04.722',-0.625,-0.260
'17:04.725',-0.620,-0.270
'17:04.728',-0.625,-0.265
'17:04.731',-0.615,-0.270
'17:04.733',-0.615,-0.255
'17:04.736',-0.600,-0.250
'17:04.739',-0.590,-0.250
'17:04.742',-0.570,-0.240
'17:04.744',-0.555,-0.210
'17:04.747',-0.550,-0.230
'17:04.750',-0.555,-0.235
'17:04.753',-0.545,-0.225
'17:04.756',-0.540,-0.235
'17:04.758',-0.550,-0.235
'17:04.761',-0.550,-0.230
'17:04.764',-0.545,-0.220
'17:04.767',-0.540,-0.220
'17:04.769',-0.515,-0.200
'17:04.772',-0.505,-0.180
'17:04.775',-0.470,-0.170
'17:04.778',-0.455,-0.155
'17:04.781',-0.445,-0.175
'17:04.783',-0.430,-0.180
'17:04.786',-0.430,-0.195
'17:04.789',-0.425,-0.205
'17:04.792',-0.415,-0.220
'17:04.794',-0.410,-0.250
'17:04.797',-0.405,-0.255
'17:04.800',-0.425,-0.275
'17:04.803',-0.440,-0.295
'17:04.806',-0.415,-0.305
'17:04.808',-0.415,-0.330
'17:04.811',-0.435,-0.320
'17:04.814',-0.445,-0.330
'17:04.817',-0.440,-0.325
'17:04.819',-0.465,-0.330
'17:04.822',-0.485,-0.325
'17:04.825',-0.495,-0.325
'17:04.828',-0.510,-0.320
'17:04.831',-0.520,-0.310
'17:04.833',-0.530,-0.290
'17:04.836',-0.545,-0.285
'17:04.839',-0.545,-0.270
'17:04.842',-0.555,-0.255
'17:04.844',-0.550,-0.245
'17:04.847',-0.565,-0.255
'17:04.850',-0.570,-0.245
'17:04.853',-0.585,-0.265
'17:04.856',-0.590,-0.280
'17:04.858',-0.590,-0.290
'17:04.861',-0.600,-0.285
'17:04.864',-0.585,-0.270
'17:04.867',-0.585,-0.280
'17:04.869',-0.580,-0.265
'17:04.872',-0.580,-0.260
'17:04.875',-0.580,-0.255
'17:04.878',-0.565,-0.255
'17:04.881',-0.545,-0.265
'17:04.883',-0.540,-0.270
'17:04.886',-0.540,-0.270
'17:04.889',-0.530,-0.295
'17:04.892',-0.545,-0.295
'17:04.894',-0.535,-0.315
'17:04.897',-0.520,-0.290
'17:04.900',-0.510,-0.300
'17:04.903',-0.475,-0.290
'17:04.906',-0.440,-0.290
'17:04.908',-0.395,-0.280
'17:04.911',-0.315,-0.280
'17:04.914',-0.230,-0.290
'17:04.917',-0.150,-0.295
'17:04.919',-0.055,-0.305
'17:04.922',0.050,-0.320
'17:04.925',0.175,-0.350
'17:04.928',0.315,-0.370
'17:04.931',0.470,-0.390
'17:04.933',0.625,-0.425
'17:04.936',0.770,-0.480
'17:04.939',0.905,-0.545
'17:04.942',1.025,-0.645
'17:04.944',1.125,-0.740
'17:04.947',1.255,-0.855
'17:04.950',1.365,-0.955
'17:04.953',1.440,-1.080
'17:04.956',1.405,-1.200
'17:04.958',1.245,-1.315
'17:04.961',0.940,-1.405
'17:04.964',0.560,-1.465
'17:04.967',0.140,-1.505
'17:04.969',-0.230,-1.505
'17:04.972',-0.505,-1.450
'17:04.975',-0.685,-1.375
'17:04.978',-0.750,-1.275
'17:04.981',-0.760,-1.180
'17:04.983',-0.735,-1.090
'17:04.986',-0.705,-1.005
'17:04.989',-0.690,-0.910
'17:04.992',-0.680,-0.860
'17:04.994',-0.695,-0.795
'17:04.997',-0.695,-0.725
'17:05.000',-0.690,-0.655
'17:05.003',-0.690,-0.590
'17:05.006',-0.675,-0.510
'17:05.008',-0.665,-0.445
'17:05.011',-0.660,-0.380
'17:05.014',-0.660,-0.335
'17:05.017',-0.670,-0.315
'17:05.019',-0.680,-0.310
'17:05.022',-0.690,-0.305
'17:05.025',-0.695,-0.310
'17:05.028',-0.690,-0.305
'17:05.031',-0.705,-0.305
'17:05.033',-0.720,-0.295
'17:05.036',-0.705,-0.270
'17:05.039',-0.710,-0.270
'17:05.042',-0.700,-0.250
'17:05.044',-0.700,-0.235
'17:05.047',-0.675,-0.245
'17:05.050',-0.690,-0.245
'17:05.053',-0.695,-0.240
'17:05.056',-0.700,-0.250
'17:05.058',-0.705,-0.250
'17:05.061',-0.725,-0.265
'17:05.064',-0.725,-0.250
'17:05.067',-0.730,-0.250
'17:05.069',-0.730,-0.235
'17:05.072',-0.725,-0.225
'17:05.075',-0.720,-0.220
'17:05.078',-0.700,-0.230
'17:05.081',-0.710,-0.235
'17:05.083',-0.715,-0.230
'17:05.086',-0.725,-0.240
'17:05.089',-0.730,-0.235
'17:05.092',-0.730,-0.250
'17:05.094',-0.745,-0.255
'17:05.097',-0.740,-0.250
'17:05.100',-0.750,-0.245
'17:05.103',-0.760,-0.220
'17:05.106',-0.745,-0.235
'17:05.108',-0.750,-0.215
'17:05.111',-0.740,-0.215
'17:05.114',-0.745,-0.210
'17:05.117',-0.760,-0.215
'17:05.119',-0.755,-0.220
'17:05.122',-0.775,-0.230
'17:05.125',-0.780,-0.235
'17:05.128',-0.785,-0.225
'17:05.131',-0.800,-0.235
'17:05.133',-0.795,-0.215
'17:05.136',-0.800,-0.205
'17:05.139',-0.790,-0.195
'17:05.142',-0.790,-0.190
'17:05.144',-0.800,-0.190
'17:05.147',-0.790,-0.185
'17:05.150',-0.790,-0.195
'17:05.153',-0.805,-0.205
'17:05.156',-0.800,-0.200
'17:05.158',-0.800,-0.195
'17:05.161',-0.820,-0.190
'17:05.164',-0.830,-0.190
'17:05.167',-0.820,-0.195
'17:05.169',-0.815,-0.175
'17:05.172',-0.800,-0.155
'17:05.175',-0.795,-0.160
'17:05.178',-0.780,-0.140
'17:05.181',-0.775,-0.145
'17:05.183',-0.770,-0.140
'17:05.186',-0.765,-0.140
'17:05.189',-0.770,-0.155
'17:05.192',-0.755,-0.160
'17:05.194',-0.760,-0.160
'17:05.197',-0.745,-0.145
'17:05.200',-0.740,-0.145
'17:05.203',-0.735,-0.130
'17:05.206',-0.715,-0.125
'17:05.208',-0.685,-0.115
'17:05.211',-0.665,-0.110
'17:05.214',-0.650,-0.110
'17:05.217',-0.640,-0.115
'17:05.219',-0.635,-0.135
'17:05.222',-0.630,-0.135
'17:05.225',-0.610,-0.145
'17:05.228',-0.595,-0.165
'17:05.231',-0.575,-0.155
'17:05.233',-0.570,-0.155
'17:05.236',-0.555,-0.155
'17:05.239',-0.550,-0.145
'17:05.242',-0.525,-0.140
'17:05.244',-0.495,-0.135
'17:05.247',-0.490,-0.165
'17:05.250',-0.490,-0.170
'17:05.253',-0.475,-0.180
'17:05.256',-0.485,-0.195
'17:05.258',-0.475,-0.210
'17:05.261',-0.490,-0.210
'17:05.264',-0.490,-0.210
'17:05.267',-0.485,-0.225
'17:05.269',-0.495,-0.215
'17:05.272',-0.475,-0.220
'17:05.275',-0.475,-0.205
'17:05.278',-0.465,-0.225
'17:05.281',-0.460,-0.240
'17:05.283',-0.475,-0.240
'17:05.286',-0.480,-0.250
'17:05.289',-0.490,-0.265
'17:05.292',-0.495,-0.270
'17:05.294',-0.505,-0.280
'17:05.297',-0.515,-0.280
'17:05.300',-0.510,-0.280
'17:05.303',-0.505,-0.270
'17:05.306',-0.505,-0.265
'17:05.308',-0.495,-0.255
'17:05.311',-0.495,-0.260
'17:05.314',-0.500,-0.265
'17:05.317',-0.495,-0.265
'17:05.319',-0.510,-0.285
'17:05.322',-0.515,-0.280
'17:05.325',-0.525,-0.295
'17:05.328',-0.530,-0.300
'17:05.331',-0.530,-0.295
'17:05.333',-0.535,-0.295
'17:05.336',-0.530,-0.285
'17:05.339',-0.530,-0.285
'17:05.342',-0.530,-0.265
'17:05.344',-0.525,-0.265
'17:05.347',-0.520,-0.275
'17:05.350',-0.525,-0.280
'17:05.353',-0.535,-0.290
'17:05.356',-0.545,-0.295
'17:05.358',-0.550,-0.310
'17:05.361',-0.555,-0.310
'17:05.364',-0.565,-0.285
'17:05.367',-0.565,-0.285
'17:05.369',-0.575,-0.285
'17:05.372',-0.560,-0.270
'17:05.375',-0.550,-0.260
'17:05.378',-0.555,-0.265
'17:05.381',-0.560,-0.275
'17:05.383',-0.555,-0.270
'17:05.386',-0.560,-0.265
'17:05.389',-0.575,-0.280
'17:05.392',-0.580,-0.280
'17:05.394',-0.570,-0.290
'17:05.397',-0.580,-0.275
'17:05.400',-0.565,-0.280
'17:05.403',-0.565,-0.265
'17:05.406',-0.555,-0.265
'17:05.408',-0.565,-0.245
'17:05.411',-0.545,-0.245
'17:05.414',-0.545,-0.245
'17:05.417',-0.555,-0.250
'17:05.419',-0.550,-0.270
'17:05.422',-0.555,-0.280
'17:05.425',-0.555,-0.285
'17:05.428',-0.555,-0.290
'17:05.431',-0.545,-0.270
'17:05.433',-0.545,-0.270
'17:05.436',-0.535,-0.255
'17:05.439',-0.515,-0.260
'17:05.442',-0.505,-0.240
'17:05.444',-0.500,-0.245
'17:05.447',-0.495,-0.250
'17:05.450',-0.490,-0.250
'17:05.453',-0.485,-0.250
'17:05.456',-0.495,-0.250
'17:05.458',-0.490,-0.245
'17:05.461',-0.500,-0.245
'17:05.464',-0.495,-0.245
'17:05.467',-0.475,-0.230
'17:05.469',-0.465,-0.215
'17:05.472',-0.445,-0.200
'17:05.475',-0.430,-0.195
'17:05.478',-0.410,-0.185
'17:05.481',-0.410,-0.180
'17:05.483',-0.400,-0.175
'17:05.486',-0.385,-0.195
'17:05.489',-0.375,-0.210
'17:05.492',-0.375,-0.240
'17:05.494',-0.380,-0.265
'17:05.497',-0.370,-0.275
'17:05.500',-0.380,-0.300
'17:05.503',-0.380,-0.315
'17:05.506',-0.385,-0.320
'17:05.508',-0.400,-0.310
'17:05.511',-0.400,-0.295
'17:05.514',-0.410,-0.295
'17:05.517',-0.425,-0.290
'17:05.519',-0.435,-0.280
'17:05.522',-0.455,-0.275
'17:05.525',-0.465,-0.270
'17:05.528',-0.500,-0.285
'17:05.531',-0.515,-0.270
'17:05.533',-0.515,-0.265
'17:05.536',-0.520,-0.265
'17:05.539',-0.520,-0.260
'17:05.542',-0.535,-0.240
'17:05.544',-0.525,-0.230
'17:05.547',-0.530,-0.230
'17:05.550',-0.520,-0.230
'17:05.553',-0.525,-0.260
'17:05.556',-0.520,-0.250
'17:05.558',-0.520,-0.270
'17:05.561',-0.525,-0.280
'17:05.564',-0.515,-0.270
'17:05.567',-0.525,-0.260
'17:05.569',-0.505,-0.265
'17:05.572',-0.495,-0.245
'17:05.575',-0.485,-0.250
'17:05.578',-0.475,-0.245
'17:05.581',-0.470,-0.255
'17:05.583',-0.455,-0.260
'17:05.586',-0.440,-0.265
'17:05.589',-0.440,-0.270
'17:05.592',-0.415,-0.275
'17:05.594',-0.390,-0.290
'17:05.597',-0.370,-0.290
'17:05.600',-0.305,-0.285
'17:05.603',-0.225,-0.280
'17:05.606',-0.150,-0.265
'17:05.608',-0.040,-0.260
'17:05.611',0.080,-0.255
'17:05.614',0.205,-0.270
'17:05.617',0.350,-0.280
'17:05.619',0.515,-0.300
'17:05.622',0.675,-0.325
'17:05.625',0.825,-0.370
'17:05.628',0.945,-0.440
'17:05.631',1.040,-0.500
'17:05.633',1.140,-0.590
'17:05.636',1.250,-0.665
'17:05.639',1.355,-0.755
'17:05.642',1.455,-0.845
'17:05.644',1.490,-0.940
'17:05.647',1.380,-1.055
'17:05.650',1.130,-1.160
'17:05.653',0.750,-1.240
'17:05.656',0.295,-1.310
'17:05.658',-0.125,-1.340
'17:05.661',-0.485,-1.315
'17:05.664',-0.710,-1.235
'17:05.667',-0.825,-1.125
'17:05.669',-0.825,-1.005
'17:05.672',-0.770,-0.890
'17:05.675',-0.700,-0.805
'17:05.678',-0.650,-0.710
'17:05.681',-0.610,-0.645
'17:05.683',-0.590,-0.595
'17:05.686',-0.585,-0.540
'17:05.689',-0.595,-0.475
'17:05.692',-0.610,-0.405
'17:05.694',-0.625,-0.355
'17:05.697',-0.625,-0.310
'17:05.700',-0.640,-0.290
'17:05.703',-0.635,-0.275
'17:05.706',-0.625,-0.260
'17:05.708',-0.620,-0.265
'17:05.711',-0.625,-0.250
'17:05.714',-0.610,-0.255
'17:05.717',-0.630,-0.250
'17:05.719',-0.625,-0.255
'17:05.722',-0.640,-0.255
'17:05.725',-0.655,-0.255
'17:05.728',-0.665,-0.265
'17:05.731',-0.655,-0.250
'17:05.733',-0.660,-0.245
'17:05.736',-0.665,-0.230
'17:05.739',-0.665,-0.220
'17:05.742',-0.655,-0.240
'17:05.744',-0.655,-0.220
'17:05.747',-0.645,-0.215
'17:05.750',-0.660,-0.230
'17:05.753',-0.665,-0.215
'17:05.756',-0.675,-0.230
'17:05.758',-0.695,-0.225
'17:05.761',-0.685,-0.235
'17:05.764',-0.705,-0.230
'17:05.767',-0.715,-0.235
'17:05.769',-0.710,-0.230
'17:05.772',-0.725,-0.225
'17:05.775',-0.715,-0.215
'17:05.778',-0.710,-0.200
'17:05.781',-0.710,-0.200
'17:05.783',-0.715,-0.200
'17:05.786',-0.715,-0.220
'17:05.789',-0.720,-0.220
'17:05.792',-0.745,-0.225
'17:05.794',-0.740,-0.225
'17:05.797',-0.755,-0.215
'17:05.800',-0.755,-0.210
'17:05.803',-0.755,-0.205
'17:05.806',-0.755,-0.195
'17:05.808',-0.755,-0.190
'17:05.811',-0.750,-0.185
'17:05.814',-0.755,-0.190
'17:05.817',-0.760,-0.185
'17:05.819',-0.760,-0.200
'17:05.822',-0.770,-0.205
'17:05.825',-0.775,-0.210
'17:05.828',-0.785,-0.205
'17:05.831',-0.790,-0.200
'17:05.833',-0.795,-0.195
'17:05.836',-0.790,-0.170
'17:05.839',-0.785,-0.170
'17:05.842',-0.770,-0.150
'17:05.844',-0.765,-0.135
'17:05.847',-0.755,-0.135
'17:05.850',-0.755,-0.150
'17:05.853',-0.755,-0.145
'17:05.856',-0.745,-0.140
'17:05.858',-0.745,-0.145
'17:05.861',-0.740,-0.160
'17:05.864',-0.735,-0.150
'17:05.867',-0.720,-0.135
'17:05.869',-0.705,-0.135
'17:05.872',-0.670,-0.120
'17:05.875',-0.660,-0.115
'17:05.878',-0.640,-0.120
'17:05.881',-0.615,-0.120
'17:05.883',-0.610,-0.120
'17:05.886',-0.595,-0.130
'17:05.889',-0.575,-0.145
'17:05.892',-0.570,-0.140
'17:05.894',-0.565,-0.155
'17:05.897',-0.555,-0.155
'17:05.900',-0.535,-0.155
'17:05.903',-0.505,-0.150
'17:05.906',-0.485,-0.155
'17:05.908',-0.475,-0.170
'17:05.911',-0.470,-0.150
'17:05.914',-0.460,-0.160
'17:05.917',-0.455,-0.170
'17:05.919',-0.455,-0.185
'17:05.922',-0.460,-0.205
'17:05.925',-0.475,-0.225
'17:05.928',-0.470,-0.235
'17:05.931',-0.470,-0.245
'17:05.933',-0.480,-0.240
'17:05.936',-0.475,-0.230
'17:05.939',-0.485,-0.225
'17:05.942',-0.480,-0.225
'17:05.944',-0.460,-0.215
'17:05.947',-0.465,-0.230
'17:05.950',-0.465,-0.235
'17:05.953',-0.465,-0.240
'17:05.956',-0.480,-0.250
'17:05.958',-0.475,-0.260
'17:05.961',-0.485,-0.255
'17:05.964',-0.495,-0.260
'17:05.967',-0.495,-0.265
'17:05.969',-0.505,-0.255
'17:05.972',-0.500,-0.255
'17:05.975',-0.500,-0.245
'17:05.978',-0.495,-0.240
'17:05.981',-0.485,-0.250
'17:05.983',-0.480,-0.245
'17:05.986',-0.495,-0.265
'17:05.989',-0.490,-0.270
'17:05.992',-0.500,-0.275
'17:05.994',-0.515,-0.280
'17:05.997',-0.530,-0.285
'17:06.000',-0.520,-0.270
'17:06.003',-0.515,-0.275
'17:06.006',-0.500,-0.270
'17:06.008',-0.525,-0.250
'17:06.011',-0.520,-0.255
'17:06.014',-0.500,-0.260
'17:06.017',-0.520,-0.260
'17:06.019',-0.515,-0.260
'17:06.022',-0.540,-0.265
'17:06.025',-0.550,-0.265
'17:06.028',-0.560,-0.285
'17:06.031',-0.560,-0.285
'17:06.033',-0.555,-0.285
'17:06.036',-0.550,-0.270
'17:06.039',-0.545,-0.255
'17:06.042',-0.540,-0.250
'17:06.044',-0.530,-0.250
'17:06.047',-0.530,-0.235
'17:06.050',-0.540,-0.250
'17:06.053',-0.555,-0.265
'17:06.056',-0.565,-0.275
'17:06.058',-0.570,-0.275
'17:06.061',-0.570,-0.265
'17:06.064',-0.580,-0.265
'17:06.067',-0.585,-0.260
'17:06.069',-0.580,-0.245
'17:06.072',-0.565,-0.235
'17:06.075',-0.560,-0.230
'17:06.078',-0.560,-0.235
'17:06.081',-0.550,-0.230
'17:06.083',-0.560,-0.235
'17:06.086',-0.555,-0.250
'17:06.089',-0.560,-0.250
'17:06.092',-0.560,-0.250
'17:06.094',-0.570,-0.260
'17:06.097',-0.565,-0.255
'17:06.100',-0.560,-0.255
'17:06.103',-0.550,-0.245
'17:06.106',-0.545,-0.230
'17:06.108',-0.530,-0.220
'17:06.111',-0.510,-0.215
'17:06.114',-0.500,-0.220
'17:06.117',-0.505,-0.220
'17:06.119',-0.500,-0.225
'17:06.122',-0.490,-0.235
'17:06.125',-0.505,-0.225
'17:06.128',-0.500,-0.220
'17:06.131',-0.500,-0.205
'17:06.133',-0.490,-0.205
'17:06.136',-0.480,-0.195
'17:06.139',-0.460,-0.190
'17:06.142',-0.435,-0.175
'17:06.144',-0.425,-0.170
'17:06.147',-0.400,-0.165
'17:06.150',-0.390,-0.190
'17:06.153',-0.375,-0.185
'17:06.156',-0.370,-0.210
'17:06.158',-0.380,-0.215
'17:06.161',-0.370,-0.240
'17:06.164',-0.370,-0.250
'17:06.167',-0.375,-0.270
'17:06.169',-0.385,-0.275
'17:06.172',-0.385,-0.290
'17:06.175',-0.385,-0.300
'17:06.178',-0.395,-0.280
'17:06.181',-0.395,-0.280
'17:06.183',-0.405,-0.285
'17:06.186',-0.435,-0.265
'17:06.189',-0.445,-0.265
'17:06.192',-0.475,-0.270
'17:06.194',-0.485,-0.270
'17:06.197',-0.495,-0.260
'17:06.200',-0.500,-0.270
'17:06.203',-0.510,-0.245
'17:06.206',-0.510,-0.240
'17:06.208',-0.525,-0.215
'17:06.211',-0.535,-0.230
'17:06.214',-0.525,-0.230
'17:06.217',-0.540,-0.230
'17:06.219',-0.540,-0.230
'17:06.222',-0.530,-0.235
'17:06.225',-0.530,-0.255
'17:06.228',-0.535,-0.245
'17:06.231',-0.540,-0.255
'17:06.233',-0.535,-0.250
'17:06.236',-0.535,-0.235
'17:06.239',-0.525,-0.245
'17:06.242',-0.510,-0.225
'17:06.244',-0.500,-0.225
'17:06.247',-0.505,-0.230
'17:06.250',-0.510,-0.240
'17:06.253',-0.490,-0.240
'17:06.256',-0.495,-0.260
'17:06.258',-0.495,-0.255
'17:06.261',-0.500,-0.270
'17:06.264',-0.485,-0.265
'17:06.267',-0.470,-0.260
'17:06.269',-0.450,-0.265
'17:06.272',-0.420,-0.260
'17:06.275',-0.375,-0.245
'17:06.278',-0.310,-0.255
'17:06.281',-0.220,-0.255
'17:06.283',-0.135,-0.260
'17:06.286',-0.040,-0.255
'17:06.289',0.075,-0.275
'17:06.292',0.200,-0.280
'17:06.294',0.360,-0.290
'17:06.297',0.525,-0.305
'17:06.300',0.715,-0.320
'17:06.303',0.860,-0.355
'17:06.306',0.995,-0.410
'17:06.308',1.125,-0.490
'17:06.311',1.245,-0.575
'17:06.314',1.375,-0.695
'17:06.317',1.485,-0.815
'17:06.319',1.500,-0.940
'17:06.322',1.370,-1.065
'17:06.325',1.055,-1.160
'17:06.328',0.625,-1.240
'17:06.331',0.145,-1.280
'17:06.333',-0.290,-1.270
'17:06.336',-0.605,-1.235
'17:06.339',-0.795,-1.150
'17:06.342',-0.840,-1.060
'17:06.344',-0.820,-0.960
'17:06.347',-0.760,-0.880
'17:06.350',-0.695,-0.815
'17:06.353',-0.650,-0.750
'17:06.356',-0.640,-0.700
'17:06.358',-0.630,-0.645
'17:06.361',-0.625,-0.605
'17:06.364',-0.625,-0.535
'17:06.367',-0.635,-0.485
'17:06.369',-0.645,-0.410
'17:06.372',-0.645,-0.350
'17:06.375',-0.625,-0.305
'17:06.378',-0.625,-0.280
'17:06.381',-0.615,-0.270
'17:06.383',-0.625,-0.280
'17:06.386',-0.625,-0.285
'17:06.389',-0.640,-0.285
'17:06.392',-0.650,-0.280
'17:06.394',-0.660,-0.290
'17:06.397',-0.660,-0.280
'17:06.400',-0.660,-0.265
'17:06.403',-0.660,-0.250
'17:06.406',-0.650,-0.235
'17:06.408',-0.645,-0.230
'17:06.411',-0.645,-0.220
'17:06.414',-0.635,-0.235
'17:06.417',-0.650,-0.220
'17:06.419',-0.655,-0.240
'17:06.422',-0.660,-0.240
'17:06.425',-0.665,-0.250
'17:06.428',-0.680,-0.245
'17:06.431',-0.670,-0.245
'17:06.433',-0.680,-0.235
'17:06.436',-0.675,-0.240
'17:06.439',-0.675,-0.225
'17:06.442',-0.665,-0.220
'17:06.444',-0.670,-0.210
'17:06.447',-0.670,-0.225
'17:06.450',-0.675,-0.220
'17:06.453',-0.680,-0.230
'17:06.456',-0.690,-0.225
'17:06.458',-0.695,-0.230
'17:06.461',-0.705,-0.235
'17:06.464',-0.705,-0.235
'17:06.467',-0.715,-0.225
'17:06.469',-0.730,-0.220
'17:06.472',-0.715,-0.210
'17:06.475',-0.720,-0.215
'17:06.478',-0.715,-0.210
'17:06.481',-0.715,-0.200
'17:06.483',-0.720,-0.210
'17:06.486',-0.730,-0.210
'17:06.489',-0.735,-0.225
'17:06.492',-0.740,-0.230
'17:06.494',-0.750,-0.230
'17:06.497',-0.770,-0.215
'17:06.500',-0.780,-0.215
'17:06.503',-0.770,-0.220
'17:06.506',-0.770,-0.195
'17:06.508',-0.765,-0.185
'17:06.511',-0.765,-0.175
'17:06.514',-0.770,-0.185
'17:06.517',-0.775,-0.185
'17:06.519',-0.775,-0.195
'17:06.522',-0.790,-0.195
'17:06.525',-0.775,-0.195
'17:06.528',-0.785,-0.195
'17:06.531',-0.790,-0.180
'17:06.533',-0.780,-0.175
'17:06.536',-0.780,-0.165
'17:06.539',-0.760,-0.165
'17:06.542',-0.750,-0.150
'17:06.544',-0.745,-0.135
'17:06.547',-0.725,-0.135
'17:06.550',-0.720,-0.140
'17:06.553',-0.710,-0.140
'17:06.556',-0.715,-0.150
'17:06.558',-0.715,-0.150
'17:06.561',-0.710,-0.150
'17:06.564',-0.705,-0.140
'17:06.567',-0.695,-0.145
'17:06.569',-0.670,-0.125
'17:06.572',-0.660,-0.125
'17:06.575',-0.640,-0.105
'17:06.578',-0.605,-0.110
'17:06.581',-0.590,-0.115
'17:06.583',-0.575,-0.120
'17:06.586',-0.560,-0.135
'17:06.589',-0.560,-0.135
'17:06.592',-0.550,-0.155
'17:06.594',-0.545,-0.165
'17:06.597',-0.525,-0.155
'17:06.600',-0.515,-0.150
'17:06.603',-0.500,-0.155
'17:06.606',-0.490,-0.160
'17:06.608',-0.480,-0.150
'17:06.611',-0.470,-0.155
'17:06.614',-0.455,-0.160
'17:06.617',-0.455,-0.180
'17:06.619',-0.465,-0.190
'17:06.622',-0.470,-0.205
'17:06.625',-0.475,-0.205
'17:06.628',-0.480,-0.215
'17:06.631',-0.490,-0.215
'17:06.633',-0.485,-0.230
'17:06.636',-0.485,-0.220
'17:06.639',-0.480,-0.220
'17:06.642',-0.485,-0.220
'17:06.644',-0.470,-0.210
'17:06.647',-0.470,-0.230
'17:06.650',-0.475,-0.240
'17:06.653',-0.470,-0.240
'17:06.656',-0.475,-0.265
'17:06.658',-0.470,-0.260
'17:06.661',-0.485,-0.260
'17:06.664',-0.485,-0.265
'17:06.667',-0.495,-0.265
'17:06.669',-0.490,-0.260
'17:06.672',-0.485,-0.270
'17:06.675',-0.495,-0.265
'17:06.678',-0.490,-0.255
'17:06.681',-0.500,-0.265
'17:06.683',-0.495,-0.270
'17:06.686',-0.500,-0.270
'17:06.689',-0.515,-0.280
'17:06.692',-0.515,-0.290
'17:06.694',-0.535,-0.300
'17:06.697',-0.525,-0.300
'17:06.700',-0.540,-0.295
'17:06.703',-0.545,-0.285
'17:06.706',-0.535,-0.275
'17:06.708',-0.520,-0.275
'17:06.711',-0.525,-0.275
'17:06.714',-0.535,-0.275
'17:06.717',-0.530,-0.285
'17:06.719',-0.540,-0.280
'17:06.722',-0.540,-0.300
'17:06.725',-0.545,-0.300
'17:06.728',-0.550,-0.305
'17:06.731',-0.575,-0.305
'17:06.733',-0.575,-0.295
'17:06.736',-0.565,-0.290
'17:06.739',-0.580,-0.285
'17:06.742',-0.570,-0.265
'17:06.744',-0.575,-0.270
'17:06.747',-0.560,-0.275
'17:06.750',-0.570,-0.270
'17:06.753',-0.575,-0.275
'17:06.756',-0.570,-0.285
'17:06.758',-0.575,-0.285
'17:06.761',-0.595,-0.295
'17:06.764',-0.590,-0.295
'17:06.767',-0.605,-0.285
'17:06.769',-0.595,-0.275
'17:06.772',-0.595,-0.265
'17:06.775',-0.590,-0.255
'17:06.778',-0.580,-0.245
'17:06.781',-0.580,-0.240
'17:06.783',-0.575,-0.250
'17:06.786',-0.580,-0.255
'17:06.789',-0.575,-0.265
'17:06.792',-0.585,-0.270
'17:06.794',-0.590,-0.275
'17:06.797',-0.590,-0.285
'17:06.800',-0.580,-0.280
'17:06.803',-0.575,-0.265
'17:06.806',-0.560,-0.250
'17:06.808',-0.530,-0.265
'17:06.811',-0.520,-0.250
'17:06.814',-0.510,-0.250
'17:06.817',-0.520,-0.245
'17:06.819',-0.515,-0.245
'17:06.822',-0.530,-0.250
'17:06.825',-0.530,-0.250
'17:06.828',-0.535,-0.235
'17:06.831',-0.510,-0.245
'17:06.833',-0.510,-0.235
'17:06.836',-0.500,-0.225
'17:06.839',-0.485,-0.215
'17:06.842',-0.470,-0.205
'17:06.844',-0.450,-0.190
'17:06.847',-0.440,-0.185
'17:06.850',-0.425,-0.205
'17:06.853',-0.415,-0.195
'17:06.856',-0.410,-0.225
'17:06.858',-0.415,-0.245
'17:06.861',-0.415,-0.265
'17:06.864',-0.420,-0.275
'17:06.867',-0.405,-0.280
'17:06.869',-0.410,-0.285
'17:06.872',-0.405,-0.290
'17:06.875',-0.405,-0.305
'17:06.878',-0.420,-0.305
'17:06.881',-0.420,-0.325
'17:06.883',-0.435,-0.335
'17:06.886',-0.445,-0.340
'17:06.889',-0.470,-0.335
'17:06.892',-0.490,-0.320
'17:06.894',-0.505,-0.325
'17:06.897',-0.525,-0.315
'17:06.900',-0.530,-0.295
'17:06.903',-0.540,-0.290
'17:06.906',-0.540,-0.280
'17:06.908',-0.545,-0.270
'17:06.911',-0.560,-0.270
'17:06.914',-0.560,-0.265
'17:06.917',-0.565,-0.265
'17:06.919',-0.570,-0.265
'17:06.922',-0.595,-0.280
'17:06.925',-0.585,-0.275
'17:06.928',-0.585,-0.275
'17:06.931',-0.585,-0.280
'17:06.933',-0.580,-0.295
'17:06.936',-0.585,-0.270
'17:06.939',-0.580,-0.285
'17:06.942',-0.570,-0.280
'17:06.944',-0.570,-0.260
'17:06.947',-0.545,-0.265
'17:06.950',-0.545,-0.265
'17:06.953',-0.545,-0.280
'17:06.956',-0.560,-0.280
'17:06.958',-0.560,-0.300
'17:06.961',-0.545,-0.305
'17:06.964',-0.550,-0.305
'17:06.967',-0.535,-0.305
'17:06.969',-0.525,-0.300
'17:06.972',-0.500,-0.290
'17:06.975',-0.470,-0.285
'17:06.978',-0.420,-0.275
'17:06.981',-0.365,-0.290
'17:06.983',-0.320,-0.295
'17:06.986',-0.245,-0.300
'17:06.989',-0.170,-0.320
'17:06.992',-0.075,-0.340
'17:06.994',0.035,-0.335
'17:06.997',0.165,-0.340
'17:07.000',0.340,-0.340
'17:07.003',0.505,-0.375
'17:07.006',0.685,-0.395
'17:07.008',0.845,-0.445
'17:07.011',0.975,-0.520
'17:07.014',1.095,-0.620
'17:07.017',1.225,-0.730
'17:07.019',1.350,-0.845
'17:07.022',1.485,-0.955
'17:07.025',1.570,-1.075
'17:07.028',1.510,-1.190
'17:07.031',1.305,-1.300
'17:07.033',0.970,-1.380
'17:07.036',0.530,-1.440
'17:07.039',0.075,-1.460
'17:07.042',-0.330,-1.445
'17:07.044',-0.610,-1.390
'17:07.047',-0.770,-1.320
'17:07.050',-0.810,-1.215
'17:07.053',-0.795,-1.110
'17:07.056',-0.765,-1.030
'17:07.058',-0.730,-0.935
'17:07.061',-0.700,-0.860
'17:07.064',-0.695,-0.805
'17:07.067',-0.690,-0.720
'17:07.069',-0.690,-0.665
'17:07.072',-0.695,-0.575
'17:07.075',-0.700,-0.495
'17:07.078',-0.680,-0.420
'17:07.081',-0.675,-0.375
'17:07.083',-0.680,-0.340
'17:07.086',-0.690,-0.305
'17:07.089',-0.695,-0.315
'17:07.092',-0.720,-0.300
'17:07.094',-0.725,-0.310
'17:07.097',-0.745,-0.315
'17:07.100',-0.730,-0.295
'17:07.103',-0.720,-0.290
'17:07.106',-0.720,-0.265
'17:07.108',-0.720,-0.270
'17:07.111',-0.720,-0.250
'17:07.114',-0.720,-0.250
'17:07.117',-0.715,-0.250
'17:07.119',-0.725,-0.275
'17:07.122',-0.735,-0.255
'17:07.125',-0.750,-0.255
'17:07.128',-0.755,-0.270
'17:07.131',-0.760,-0.265
'17:07.133',-0.755,-0.250
'17:07.136',-0.760,-0.240
'17:07.139',-0.760,-0.235
'17:07.142',-0.750,-0.245
'17:07.144',-0.745,-0.225
'17:07.147',-0.750,-0.240
'17:07.150',-0.740,-0.240
'17:07.153',-0.750,-0.235
'17:07.156',-0.760,-0.240
'17:07.158',-0.770,-0.250
'17:07.161',-0.780,-0.255
'17:07.164',-0.790,-0.250
'17:07.167',-0.790,-0.250
'17:07.169',-0.800,-0.245
'17:07.172',-0.795,-0.230
'17:07.175',-0.795,-0.230
'17:07.178',-0.785,-0.220
'17:07.181',-0.785,-0.225
'17:07.183',-0.800,-0.230
'17:07.186',-0.795,-0.225
'17:07.189',-0.805,-0.240
'17:07.192',-0.825,-0.235
'17:07.194',-0.825,-0.250
'17:07.197',-0.820,-0.235
'17:07.200',-0.830,-0.225
'17:07.203',-0.835,-0.220
'17:07.206',-0.840,-0.220
'17:07.208',-0.840,-0.205
'17:07.211',-0.855,-0.195
'17:07.214',-0.835,-0.205
'17:07.217',-0.840,-0.210
'17:07.219',-0.840,-0.200
'17:07.222',-0.855,-0.200
'17:07.225',-0.855,-0.200
'17:07.228',-0.845,-0.200
'17:07.231',-0.855,-0.210
'17:07.233',-0.855,-0.195
'17:07.236',-0.860,-0.185
'17:07.239',-0.850,-0.170
'17:07.242',-0.840,-0.155
'17:07.244',-0.820,-0.150
'17:07.247',-0.820,-0.150
'17:07.250',-0.815,-0.140
'17:07.253',-0.810,-0.140
'17:07.256',-0.805,-0.150
'17:07.258',-0.815,-0.150
'17:07.261',-0.810,-0.150
'17:07.264',-0.805,-0.145
'17:07.267',-0.805,-0.135
'17:07.269',-0.785,-0.130
'17:07.272',-0.770,-0.125
'17:07.275',-0.755,-0.115
'17:07.278',-0.735,-0.120
'17:07.281',-0.720,-0.110
'17:07.283',-0.705,-0.115
'17:07.286',-0.685,-0.115
'17:07.289',-0.680,-0.130
'17:07.292',-0.665,-0.155
'17:07.294',-0.660,-0.155
'17:07.297',-0.650,-0.150
'17:07.300',-0.640,-0.150
'17:07.303',-0.615,-0.160
'17:07.306',-0.600,-0.145
'17:07.308',-0.580,-0.160
'17:07.311',-0.560,-0.165
'17:07.314',-0.550,-0.165
'17:07.317',-0.540,-0.190
'17:07.319',-0.545,-0.190
'17:07.322',-0.545,-0.195
'17:07.325',-0.550,-0.220
'17:07.328',-0.550,-0.230
'17:07.331',-0.550,-0.245
'17:07.333',-0.550,-0.245
'17:07.336',-0.555,-0.260
'17:07.339',-0.550,-0.255
'17:07.342',-0.540,-0.260
'17:07.344',-0.545,-0.255
'17:07.347',-0.545,-0.255
'17:07.350',-0.540,-0.260
'17:07.353',-0.540,-0.275
'17:07.356',-0.545,-0.280
'17:07.358',-0.560,-0.300
'17:07.361',-0.555,-0.300
'17:07.364',-0.560,-0.295
'17:07.367',-0.570,-0.300
'17:07.369',-0.565,-0.295
'17:07.372',-0.565,-0.285
'17:07.375',-0.560,-0.280
'17:07.378',-0.555,-0.285
'17:07.381',-0.555,-0.280
'17:07.383',-0.550,-0.290
'17:07.386',-0.570,-0.300
'17:07.389',-0.580,-0.300
'17:07.392',-0.575,-0.320
'17:07.394',-0.590,-0.315
'17:07.397',-0.600,-0.320
'17:07.400',-0.600,-0.310
'17:07.403',-0.595,-0.310
'17:07.406',-0.590,-0.300
'17:07.408',-0.595,-0.300
'17:07.411',-0.590,-0.285
'17:07.414',-0.580,-0.295
'17:07.417',-0.585,-0.290
'17:07.419',-0.600,-0.310
'17:07.422',-0.605,-0.320
'17:07.425',-0.615,-0.325
'17:07.428',-0.615,-0.325
'17:07.431',-0.615,-0.330
'17:07.433',-0.610,-0.320
'17:07.436',-0.625,-0.305
'17:07.439',-0.630,-0.295
'17:07.442',-0.615,-0.290
'17:07.444',-0.610,-0.285
'17:07.447',-0.610,-0.270
'17:07.450',-0.610,-0.290
'17:07.453',-0.610,-0.295
'17:07.456',-0.640,-0.305
'17:07.458',-0.635,-0.300
'17:07.461',-0.640,-0.305
'17:07.464',-0.640,-0.315
'17:07.467',-0.645,-0.300
'17:07.469',-0.640,-0.290
'17:07.472',-0.640,-0.290
'17:07.475',-0.640,-0.275
'17:07.478',-0.635,-0.270
'17:07.481',-0.630,-0.265
'17:07.483',-0.625,-0.270
'17:07.486',-0.625,-0.275
'17:07.489',-0.625,-0.285
'17:07.492',-0.615,-0.285
'17:07.494',-0.625,-0.295
'17:07.497',-0.615,-0.295
'17:07.500',-0.610,-0.285
'17:07.503',-0.600,-0.285
'17:07.506',-0.590,-0.270
'17:07.508',-0.585,-0.265
'17:07.511',-0.565,-0.250
'17:07.514',-0.555,-0.240
'17:07.517',-0.550,-0.245
'17:07.519',-0.555,-0.240
'17:07.522',-0.555,-0.250
'17:07.525',-0.545,-0.245
'17:07.528',-0.545,-0.250
'17:07.531',-0.535,-0.240
'17:07.533',-0.520,-0.210
'17:07.536',-0.500,-0.220
'17:07.539',-0.485,-0.195
'17:07.542',-0.445,-0.200
'17:07.544',-0.430,-0.215
'17:07.547',-0.425,-0.225
'17:07.550',-0.415,-0.250
'17:07.553',-0.415,-0.265
'17:07.556',-0.420,-0.290
'17:07.558',-0.420,-0.330
'17:07.561',-0.435,-0.345
'17:07.564',-0.450,-0.370
'17:07.567',-0.455,-0.385
'17:07.569',-0.475,-0.375
'17:07.572',-0.475,-0.350
'17:07.575',-0.490,-0.355
'17:07.578',-0.495,-0.335
'17:07.581',-0.505,-0.310
'17:07.583',-0.515,-0.300
'17:07.586',-0.535,-0.300
'17:07.589',-0.545,-0.305
'17:07.592',-0.555,-0.310
'17:07.594',-0.585,-0.300
'17:07.597',-0.600,-0.320
'17:07.600',-0.610,-0.300
'17:07.603',-0.615,-0.300
'17:07.606',-0.615,-0.285
'17:07.608',-0.610,-0.280
'17:07.611',-0.600,-0.275
'17:07.614',-0.590,-0.265
'17:07.617',-0.585,-0.295
'17:07.619',-0.590,-0.295
'17:07.622',-0.590,-0.285
'17:07.625',-0.600,-0.305
'17:07.628',-0.595,-0.305
'17:07.631',-0.600,-0.305
'17:07.633',-0.605,-0.290
'17:07.636',-0.595,-0.300
'17:07.639',-0.590,-0.295
'17:07.642',-0.570,-0.295
'17:07.644',-0.555,-0.285
'17:07.647',-0.540,-0.290
'17:07.650',-0.535,-0.295
'17:07.653',-0.515,-0.305
'17:07.656',-0.510,-0.310
'17:07.658',-0.480,-0.325
'17:07.661',-0.460,-0.320
'17:07.664',-0.400,-0.320
'17:07.667',-0.335,-0.335
'17:07.669',-0.250,-0.335
'17:07.672',-0.165,-0.315
'17:07.675',-0.065,-0.330
'17:07.678',0.050,-0.315
'17:07.681',0.195,-0.325
'17:07.683',0.355,-0.370
'17:07.686',0.510,-0.390
'17:07.689',0.665,-0.445
'17:07.692',0.800,-0.525
'17:07.694',0.930,-0.610
'17:07.697',1.055,-0.725
'17:07.700',1.195,-0.825
'17:07.703',1.335,-0.940
'17:07.706',1.460,-1.065
'17:07.708',1.490,-1.180
'17:07.711',1.370,-1.300
'17:07.714',1.090,-1.390
'17:07.717',0.685,-1.480
'17:07.719',0.220,-1.525
'17:07.722',-0.215,-1.530
'17:07.725',-0.565,-1.485
'17:07.728',-0.775,-1.385
'17:07.731',-0.870,-1.260
'17:07.733',-0.860,-1.110
'17:07.736',-0.800,-0.985
'17:07.739',-0.740,-0.870
'17:07.742',-0.685,-0.760
'17:07.744',-0.650,-0.675
'17:07.747',-0.640,-0.590
'17:07.750',-0.640,-0.525
'17:07.753',-0.660,-0.450
'17:07.756',-0.680,-0.405
'17:07.758',-0.700,-0.360
'17:07.761',-0.705,-0.355
'17:07.764',-0.720,-0.340
'17:07.767',-0.715,-0.335
'17:07.769',-0.720,-0.310
'17:07.772',-0.705,-0.300
'17:07.775',-0.700,-0.300
'17:07.778',-0.700,-0.280
'17:07.781',-0.690,-0.275
'17:07.783',-0.695,-0.280
'17:07.786',-0.710,-0.275
'17:07.789',-0.705,-0.275
'17:07.792',-0.710,-0.285
'17:07.794',-0.730,-0.280
'17:07.797',-0.730,-0.280
'17:07.800',-0.730,-0.280
'17:07.803',-0.735,-0.275
'17:07.806',-0.730,-0.260
'17:07.808',-0.730,-0.260
'17:07.811',-0.735,-0.260
'17:07.814',-0.720,-0.245
'17:07.817',-0.735,-0.240
'17:07.819',-0.735,-0.240
'17:07.822',-0.735,-0.250
'17:07.825',-0.740,-0.250
'17:07.828',-0.740,-0.270
'17:07.831',-0.760,-0.270
'17:07.833',-0.760,-0.260
'17:07.836',-0.765,-0.260
'17:07.839',-0.760,-0.240
'17:07.842',-0.755,-0.245
'17:07.844',-0.745,-0.230
'17:07.847',-0.750,-0.230
'17:07.850',-0.750,-0.240
'17:07.853',-0.750,-0.240
'17:07.856',-0.760,-0.255
'17:07.858',-0.765,-0.255
'17:07.861',-0.780,-0.265
'17:07.864',-0.785,-0.260
'17:07.867',-0.785,-0.270
'17:07.869',-0.795,-0.255
'17:07.872',-0.790,-0.245
'17:07.875',-0.790,-0.240
'17:07.878',-0.795,-0.235
'17:07.881',-0.790,-0.225
'17:07.883',-0.810,-0.230
'17:07.886',-0.810,-0.235
'17:07.889',-0.805,-0.235
'17:07.892',-0.810,-0.230
'17:07.894',-0.820,-0.250
'17:07.897',-0.835,-0.240
'17:07.900',-0.835,-0.235
'17:07.903',-0.835,-0.210
'17:07.906',-0.850,-0.210
'17:07.908',-0.835,-0.200
'17:07.911',-0.825,-0.195
'17:07.914',-0.820,-0.190
'17:07.917',-0.810,-0.185
'17:07.919',-0.800,-0.185
'17:07.922',-0.810,-0.180
'17:07.925',-0.830,-0.190
'17:07.928',-0.825,-0.185
'17:07.931',-0.825,-0.190
'17:07.933',-0.815,-0.170
'17:07.936',-0.800,-0.160
'17:07.939',-0.780,-0.155
'17:07.942',-0.765,-0.135
'17:07.944',-0.750,-0.130
'17:07.947',-0.725,-0.130
'17:07.950',-0.715,-0.135
'17:07.953',-0.705,-0.145
'17:07.956',-0.695,-0.155
'17:07.958',-0.680,-0.160
'17:07.961',-0.675,-0.150
'17:07.964',-0.660,-0.170
'17:07.967',-0.650,-0.165
'17:07.969',-0.625,-0.155
'17:07.972',-0.620,-0.155
'17:07.975',-0.580,-0.150
'17:07.978',-0.560,-0.160
'17:07.981',-0.560,-0.155
'17:07.983',-0.530,-0.180
'17:07.986',-0.530,-0.180
'17:07.989',-0.525,-0.190
'17:07.992',-0.530,-0.215
'17:07.994',-0.525,-0.215
'17:07.997',-0.530,-0.230
'17:08.000',-0.530,-0.240
'17:08.003',-0.530,-0.235
'17:08.006',-0.520,-0.230
'17:08.008',-0.515,-0.240
'17:08.011',-0.505,-0.250
'17:08.014',-0.500,-0.240
'17:08.017',-0.500,-0.250
'17:08.019',-0.495,-0.265
'17:08.022',-0.510,-0.280
'17:08.025',-0.505,-0.275
'17:08.028',-0.520,-0.295
'17:08.031',-0.530,-0.300
'17:08.033',-0.525,-0.305
'17:08.036',-0.525,-0.295
'17:08.039',-0.540,-0.295
'17:08.042',-0.525,-0.275
'17:08.044',-0.520,-0.275
'17:08.047',-0.510,-0.285
'17:08.050',-0.510,-0.300
'17:08.053',-0.505,-0.300
'17:08.056',-0.520,-0.310
'17:08.058',-0.535,-0.315
'17:08.061',-0.550,-0.320
'17:08.064',-0.545,-0.315
'17:08.067',-0.555,-0.325
'17:08.069',-0.550,-0.305
'17:08.072',-0.545,-0.310
'17:08.075',-0.535,-0.310
'17:08.078',-0.530,-0.315
'17:08.081',-0.530,-0.310
'17:08.083',-0.535,-0.310
'17:08.086',-0.535,-0.315
'17:08.089',-0.540,-0.315
'17:08.092',-0.560,-0.325
'17:08.094',-0.565,-0.340
'17:08.097',-0.565,-0.330
'17:08.100',-0.565,-0.325
'17:08.103',-0.560,-0.330
'17:08.106',-0.555,-0.320
'17:08.108',-0.565,-0.320
'17:08.111',-0.555,-0.315
'17:08.114',-0.550,-0.295
'17:08.117',-0.555,-0.315
'17:08.119',-0.565,-0.320
'17:08.122',-0.575,-0.320
'17:08.125',-0.585,-0.330
'17:08.128',-0.595,-0.330
'17:08.131',-0.605,-0.340
'17:08.133',-0.600,-0.310
'17:08.136',-0.605,-0.305
'17:08.139',-0.600,-0.305
'17:08.142',-0.595,-0.300
'17:08.144',-0.595,-0.275
'17:08.147',-0.580,-0.290
'17:08.150',-0.590,-0.305
'17:08.153',-0.585,-0.295
'17:08.156',-0.590,-0.300
'17:08.158',-0.595,-0.300
'17:08.161',-0.600,-0.305
'17:08.164',-0.590,-0.300
'17:08.167',-0.590,-0.305
'17:08.169',-0.595,-0.310
'17:08.172',-0.570,-0.295
'17:08.175',-0.560,-0.275
'17:08.178',-0.560,-0.265
'17:08.181',-0.540,-0.260
'17:08.183',-0.520,-0.265
'17:08.186',-0.520,-0.275
'17:08.189',-0.530,-0.265
'17:08.192',-0.530,-0.265
'17:08.194',-0.525,-0.260
'17:08.197',-0.520,-0.265
'17:08.200',-0.505,-0.245
'17:08.203',-0.495,-0.225
'17:08.206',-0.490,-0.215
'17:08.208',-0.460,-0.200
'17:08.211',-0.440,-0.190
'17:08.214',-0.425,-0.185
'17:08.217',-0.410,-0.200
'17:08.219',-0.400,-0.200
'17:08.222',-0.395,-0.225
'17:08.225',-0.390,-0.235
'17:08.228',-0.395,-0.250
'17:08.231',-0.390,-0.270
'17:08.233',-0.395,-0.270
'17:08.236',-0.390,-0.315
'17:08.239',-0.385,-0.310
'17:08.242',-0.385,-0.340
'17:08.244',-0.390,-0.335
'17:08.247',-0.380,-0.330
'17:08.250',-0.390,-0.345
'17:08.253',-0.405,-0.340
'17:08.256',-0.430,-0.330
'17:08.258',-0.440,-0.330
'17:08.261',-0.460,-0.320
'17:08.264',-0.475,-0.330
'17:08.267',-0.475,-0.320
'17:08.269',-0.490,-0.295
'17:08.272',-0.490,-0.300
'17:08.275',-0.470,-0.295
'17:08.278',-0.465,-0.300
'17:08.281',-0.450,-0.305
'17:08.283',-0.420,-0.325
'17:08.286',-0.395,-0.350
'17:08.289',-0.355,-0.380
'17:08.292',-0.330,-0.385
'17:08.294',-0.280,-0.420
'17:08.297',-0.215,-0.450
'17:08.300',-0.130,-0.480
'17:08.303',-0.045,-0.515
'17:08.306',0.075,-0.550
'17:08.308',0.225,-0.600
'17:08.311',0.395,-0.660
'17:08.314',0.585,-0.730
'17:08.317',0.785,-0.810
'17:08.319',0.975,-0.855
'17:08.322',1.150,-0.895
'17:08.325',1.305,-0.920
'17:08.328',1.415,-0.895
'17:08.331',1.470,-0.840
'17:08.333',1.480,-0.725
'17:08.336',1.445,-0.565
'17:08.339',1.370,-0.395
'17:08.342',1.270,-0.205
'17:08.344',1.160,-0.035
'17:08.347',1.005,0.130
'17:08.350',0.820,0.285
'17:08.353',0.580,0.405
'17:08.356',0.310,0.500
'17:08.358',0.020,0.520
'17:08.361',-0.215,0.490
'17:08.364',-0.410,0.400
'17:08.367',-0.535,0.265
'17:08.369',-0.605,0.120
'17:08.372',-0.630,0.005
'17:08.375',-0.640,-0.100
'17:08.378',-0.635,-0.150
'17:08.381',-0.630,-0.180
'17:08.383',-0.640,-0.205
'17:08.386',-0.660,-0.210
'17:08.389',-0.675,-0.215
'17:08.392',-0.690,-0.225
'17:08.394',-0.710,-0.265
'17:08.397',-0.730,-0.260
'17:08.400',-0.740,-0.260
'17:08.403',-0.750,-0.270
'17:08.406',-0.765,-0.265
'17:08.408',-0.755,-0.265
'17:08.411',-0.745,-0.245
'17:08.414',-0.750,-0.250
'17:08.417',-0.760,-0.260
'17:08.419',-0.765,-0.260
'17:08.422',-0.775,-0.285
'17:08.425',-0.780,-0.295
'17:08.428',-0.790,-0.295
'17:08.431',-0.805,-0.295
'17:08.433',-0.800,-0.305
'17:08.436',-0.810,-0.290
'17:08.439',-0.825,-0.285
'17:08.442',-0.825,-0.275
'17:08.444',-0.815,-0.265
'17:08.447',-0.810,-0.265
'17:08.450',-0.820,-0.285
'17:08.453',-0.835,-0.295
'17:08.456',-0.850,-0.295
'17:08.458',-0.855,-0.295
'17:08.461',-0.880,-0.300
'17:08.464',-0.875,-0.310
'17:08.467',-0.885,-0.300
'17:08.469',-0.880,-0.295
'17:08.472',-0.895,-0.300
'17:08.475',-0.910,-0.290
'17:08.478',-0.905,-0.280
'17:08.481',-0.920,-0.275
'17:08.483',-0.915,-0.290
'17:08.486',-0.930,-0.285
'17:08.489',-0.950,-0.295
'17:08.492',-0.965,-0.300
'17:08.494',-0.970,-0.315
'17:08.497',-1.000,-0.305
'17:08.500',-1.015,-0.310
'17:08.503',-1.035,-0.305
'17:08.506',-1.050,-0.295
'17:08.508',-1.050,-0.285
'17:08.511',-1.055,-0.275
'17:08.514',-1.065,-0.270
'17:08.517',-1.075,-0.290
'17:08.519',-1.085,-0.305
'17:08.522',-1.105,-0.320
'17:08.525',-1.125,-0.325
'17:08.528',-1.150,-0.340
'17:08.531',-1.165,-0.335
'17:08.533',-1.155,-0.345
'17:08.536',-1.175,-0.350
'17:08.539',-1.170,-0.340
'17:08.542',-1.170,-0.350
'17:08.544',-1.195,-0.350
'17:08.547',-1.185,-0.365
'17:08.550',-1.170,-0.395
'17:08.553',-1.170,-0.395
'17:08.556',-1.165,-0.410
'17:08.558',-1.155,-0.425
'17:08.561',-1.150,-0.445
'17:08.564',-1.140,-0.460
'17:08.567',-1.130,-0.455
'17:08.569',-1.110,-0.470
'17:08.572',-1.080,-0.465
'17:08.575',-1.045,-0.455
'17:08.578',-1.030,-0.455
'17:08.581',-0.995,-0.465
'17:08.583',-0.970,-0.485
'17:08.586',-0.955,-0.490
'17:08.589',-0.925,-0.505
'17:08.592',-0.905,-0.510
'17:08.594',-0.880,-0.510
'17:08.597',-0.855,-0.515
'17:08.600',-0.825,-0.500
'17:08.603',-0.800,-0.505
'17:08.606',-0.780,-0.495
'17:08.608',-0.735,-0.475
'17:08.611',-0.700,-0.495
'17:08.614',-0.680,-0.480
'17:08.617',-0.660,-0.485
'17:08.619',-0.640,-0.485
'17:08.622',-0.640,-0.470
'17:08.625',-0.620,-0.480
'17:08.628',-0.615,-0.470
'17:08.631',-0.610,-0.470
'17:08.633',-0.600,-0.440
'17:08.636',-0.595,-0.435
'17:08.639',-0.575,-0.420
'17:08.642',-0.550,-0.415
'17:08.644',-0.555,-0.405
'17:08.647',-0.540,-0.380
'17:08.650',-0.535,-0.375
'17:08.653',-0.520,-0.375
'17:08.656',-0.525,-0.380
'17:08.658',-0.530,-0.380
'17:08.661',-0.545,-0.370
'17:08.664',-0.540,-0.375
'17:08.667',-0.540,-0.355
'17:08.669',-0.535,-0.350
'17:08.672',-0.530,-0.335
'17:08.675',-0.540,-0.320
'17:08.678',-0.515,-0.315
'17:08.681',-0.505,-0.310
'17:08.683',-0.505,-0.315
'17:08.686',-0.520,-0.315
'17:08.689',-0.535,-0.310
'17:08.692',-0.540,-0.315
'17:08.694',-0.550,-0.335
'17:08.697',-0.555,-0.325
'17:08.700',-0.550,-0.320
'17:08.703',-0.555,-0.310
'17:08.706',-0.545,-0.295
'17:08.708',-0.560,-0.290
'17:08.711',-0.560,-0.285
'17:08.714',-0.540,-0.275
'17:08.717',-0.540,-0.305
'17:08.719',-0.550,-0.295
'17:08.722',-0.555,-0.305
'17:08.725',-0.570,-0.300
'17:08.728',-0.590,-0.305
'17:08.731',-0.600,-0.305
'17:08.733',-0.595,-0.285
'17:08.736',-0.595,-0.295
'17:08.739',-0.590,-0.300
'17:08.742',-0.595,-0.280
'17:08.744',-0.590,-0.285
'17:08.747',-0.585,-0.280
'17:08.750',-0.595,-0.295
'17:08.753',-0.605,-0.295
'17:08.756',-0.595,-0.305
'17:08.758',-0.610,-0.300
'17:08.761',-0.605,-0.320
'17:08.764',-0.615,-0.310
'17:08.767',-0.610,-0.305
'17:08.769',-0.610,-0.300
'17:08.772',-0.595,-0.295
'17:08.775',-0.585,-0.295
'17:08.778',-0.585,-0.285
'17:08.781',-0.560,-0.285
'17:08.783',-0.560,-0.295
'17:08.786',-0.555,-0.290
'17:08.789',-0.565,-0.295
'17:08.792',-0.565,-0.310
'17:08.794',-0.560,-0.310
'17:08.797',-0.560,-0.305
'17:08.800',-0.555,-0.305
'17:08.803',-0.555,-0.290
'17:08.806',-0.535,-0.290
'17:08.808',-0.520,-0.285
'17:08.811',-0.510,-0.280
'17:08.814',-0.500,-0.265
'17:08.817',-0.495,-0.270
'17:08.819',-0.495,-0.280
'17:08.822',-0.510,-0.290
'17:08.825',-0.515,-0.290
'17:08.828',-0.520,-0.295
'17:08.831',-0.515,-0.295
'17:08.833',-0.520,-0.295
'17:08.836',-0.505,-0.280
'17:08.839',-0.485,-0.265
'17:08.842',-0.480,-0.270
'17:08.844',-0.475,-0.245
'17:08.847',-0.455,-0.255
'17:08.850',-0.450,-0.255
'17:08.853',-0.445,-0.260
'17:08.856',-0.455,-0.255
'17:08.858',-0.450,-0.255
'17:08.861',-0.450,-0.255
'17:08.864',-0.450,-0.255
'17:08.867',-0.445,-0.240
'17:08.869',-0.445,-0.235
'17:08.872',-0.440,-0.225
'17:08.875',-0.445,-0.210
'17:08.878',-0.420,-0.210
'17:08.881',-0.410,-0.190
'17:08.883',-0.400,-0.190
'17:08.886',-0.385,-0.190
'17:08.889',-0.385,-0.195
'17:08.892',-0.370,-0.200
'17:08.894',-0.365,-0.210
'17:08.897',-0.365,-0.240
'17:08.900',-0.350,-0.230
'17:08.903',-0.340,-0.240
'17:08.906',-0.340,-0.255
'17:08.908',-0.335,-0.285
'17:08.911',-0.335,-0.285
'17:08.914',-0.345,-0.300
'17:08.917',-0.350,-0.320
'17:08.919',-0.365,-0.325
'17:08.922',-0.370,-0.320
'17:08.925',-0.405,-0.320
'17:08.928',-0.410,-0.315
'17:08.931',-0.445,-0.310
'17:08.933',-0.445,-0.275
'17:08.936',-0.450,-0.270
'17:08.939',-0.470,-0.265
'17:08.942',-0.450,-0.250
'17:08.944',-0.470,-0.255
'17:08.947',-0.475,-0.245
'17:08.950',-0.495,-0.250
'17:08.953',-0.500,-0.250
'17:08.956',-0.510,-0.245
'17:08.958',-0.515,-0.265
'17:08.961',-0.540,-0.265
'17:08.964',-0.525,-0.265
'17:08.967',-0.520,-0.265
'17:08.969',-0.520,-0.255
'17:08.972',-0.505,-0.255
'17:08.975',-0.495,-0.240
'17:08.978',-0.490,-0.245
'17:08.981',-0.475,-0.235
'17:08.983',-0.475,-0.245
'17:08.986',-0.470,-0.245
'17:08.989',-0.470,-0.255
'17:08.992',-0.465,-0.265
'17:08.994',-0.460,-0.280
'17:08.997',-0.445,-0.280
'17:09.000',-0.435,-0.275
'17:09.003',-0.420,-0.260
'17:09.006',-0.390,-0.265
'17:09.008',-0.355,-0.255
'17:09.011',-0.290,-0.250
'17:09.014',-0.230,-0.250
'17:09.017',-0.145,-0.255
'17:09.019',-0.045,-0.260
'17:09.022',0.050,-0.270
'17:09.025',0.170,-0.275
'17:09.028',0.330,-0.290
'17:09.031',0.505,-0.305
'17:09.033',0.680,-0.315
'17:09.036',0.860,-0.350
'17:09.039',0.995,-0.400
'17:09.042',1.110,-0.465
'17:09.044',1.215,-0.550
'17:09.047',1.320,-0.630
'17:09.050',1.430,-0.725
'17:09.053',1.520,-0.825
'17:09.056',1.515,-0.945
'17:09.058',1.380,-1.035
'17:09.061',1.120,-1.145
'17:09.064',0.750,-1.215
'17:09.067',0.355,-1.265
'17:09.069',-0.020,-1.280
'17:09.072',-0.340,-1.265
'17:09.075',-0.565,-1.225
'17:09.078',-0.680,-1.175
'17:09.081',-0.720,-1.095
'17:09.083',-0.725,-1.020
'17:09.086',-0.690,-0.930
'17:09.089',-0.665,-0.850
'17:09.092',-0.650,-0.780
'17:09.094',-0.645,-0.715
'17:09.097',-0.630,-0.665
'17:09.100',-0.625,-0.605
'17:09.103',-0.615,-0.535
'17:09.106',-0.605,-0.465
'17:09.108',-0.600,-0.390
'17:09.111',-0.590,-0.335
'17:09.114',-0.585,-0.285
'17:09.117',-0.605,-0.285
'17:09.119',-0.610,-0.280
'17:09.122',-0.615,-0.285
'17:09.125',-0.625,-0.300
'17:09.128',-0.640,-0.290
'17:09.131',-0.645,-0.290
'17:09.133',-0.640,-0.265
'17:09.136',-0.650,-0.270
'17:09.139',-0.640,-0.255
'17:09.142',-0.640,-0.235
'17:09.144',-0.645,-0.235
'17:09.147',-0.625,-0.235
'17:09.150',-0.625,-0.250
'17:09.153',-0.635,-0.240
'17:09.156',-0.635,-0.240
'17:09.158',-0.640,-0.245
'17:09.161',-0.655,-0.240
'17:09.164',-0.660,-0.260
'17:09.167',-0.670,-0.250
'17:09.169',-0.670,-0.245
'17:09.172',-0.675,-0.240
'17:09.175',-0.665,-0.230
'17:09.178',-0.670,-0.225
'17:09.181',-0.665,-0.215
'17:09.183',-0.665,-0.215
'17:09.186',-0.685,-0.220
'17:09.189',-0.685,-0.240
'17:09.192',-0.695,-0.230
'17:09.194',-0.700,-0.240
'17:09.197',-0.705,-0.250
'17:09.200',-0.705,-0.230
'17:09.203',-0.715,-0.225
'17:09.206',-0.710,-0.215
'17:09.208',-0.715,-0.205
'17:09.211',-0.705,-0.205
'17:09.214',-0.700,-0.200
'17:09.217',-0.710,-0.200
'17:09.219',-0.710,-0.200
'17:09.222',-0.710,-0.220
'17:09.225',-0.730,-0.225
'17:09.228',-0.745,-0.230
'17:09.231',-0.745,-0.225
'17:09.233',-0.750,-0.220
'17:09.236',-0.750,-0.215
'17:09.239',-0.755,-0.200
'17:09.242',-0.750,-0.200
'17:09.244',-0.735,-0.185
'17:09.247',-0.735,-0.190
'17:09.250',-0.735,-0.190
'17:09.253',-0.730,-0.185
'17:09.256',-0.735,-0.190
'17:09.258',-0.740,-0.185
'17:09.261',-0.745,-0.200
'17:09.264',-0.745,-0.205
'17:09.267',-0.755,-0.195
'17:09.269',-0.745,-0.185
'17:09.272',-0.740,-0.180
'17:09.275',-0.720,-0.170
'17:09.278',-0.725,-0.160
'17:09.281',-0.710,-0.145
'17:09.283',-0.700,-0.160
'17:09.286',-0.705,-0.150
'17:09.289',-0.695,-0.160
'17:09.292',-0.715,-0.155
'17:09.294',-0.700,-0.165
'17:09.297',-0.695,-0.150
'17:09.300',-0.685,-0.155
'17:09.303',-0.675,-0.150
'17:09.306',-0.650,-0.130
'17:09.308',-0.630,-0.125
'17:09.311',-0.620,-0.120
'17:09.314',-0.585,-0.110
'17:09.317',-0.575,-0.130
'17:09.319',-0.555,-0.125
'17:09.322',-0.540,-0.140
'17:09.325',-0.540,-0.130
'17:09.328',-0.520,-0.155
'17:09.331',-0.510,-0.165
'17:09.333',-0.505,-0.155
'17:09.336',-0.490,-0.160
'17:09.339',-0.475,-0.155
'17:09.342',-0.455,-0.150
'17:09.344',-0.450,-0.150
'17:09.347',-0.435,-0.155
'17:09.350',-0.435,-0.160
'17:09.353',-0.425,-0.170
'17:09.356',-0.425,-0.185
'17:09.358',-0.410,-0.190
'17:09.361',-0.420,-0.220
'17:09.364',-0.425,-0.225
'17:09.367',-0.440,-0.215
'17:09.369',-0.445,-0.230
'17:09.372',-0.435,-0.225
'17:09.375',-0.425,-0.220
'17:09.378',-0.420,-0.210
'17:09.381',-0.430,-0.215
'17:09.383',-0.420,-0.225
'17:09.386',-0.435,-0.235
'17:09.389',-0.430,-0.250
'17:09.392',-0.455,-0.255
'17:09.394',-0.455,-0.270
'17:09.397',-0.475,-0.285
'17:09.400',-0.470,-0.275
'17:09.403',-0.465,-0.270
'17:09.406',-0.460,-0.260
'17:09.408',-0.455,-0.250
'17:09.411',-0.455,-0.250
'17:09.414',-0.440,-0.250
'17:09.417',-0.445,-0.270
'17:09.419',-0.450,-0.270
'17:09.422',-0.465,-0.270
'17:09.425',-0.460,-0.275
'17:09.428',-0.475,-0.285
'17:09.431',-0.485,-0.295
'17:09.433',-0.495,-0.290
'17:09.436',-0.490,-0.280
'17:09.439',-0.495,-0.280
'17:09.442',-0.485,-0.280
'17:09.444',-0.485,-0.265
'17:09.447',-0.465,-0.260
'17:09.450',-0.470,-0.260
'17:09.453',-0.470,-0.270
'17:09.456',-0.475,-0.285
'17:09.458',-0.480,-0.280
'17:09.461',-0.480,-0.300
'17:09.464',-0.490,-0.295
'17:09.467',-0.495,-0.295
'17:09.469',-0.480,-0.290
'17:09.472',-0.480,-0.260
'17:09.475',-0.475,-0.265
'17:09.478',-0.470,-0.245
'17:09.481',-0.470,-0.230
'17:09.483',-0.480,-0.245
'17:09.486',-0.480,-0.215
'17:09.489',-0.475,-0.235
'17:09.492',-0.480,-0.230
'17:09.494',-0.490,-0.240
'17:09.497',-0.490,-0.230
'17:09.500',-0.490,-0.215
'17:09.503',-0.480,-0.190
'17:09.506',-0.470,-0.190
'17:09.508',-0.445,-0.180
'17:09.511',-0.440,-0.190
'17:09.514',-0.420,-0.190
'17:09.517',-0.405,-0.215
'17:09.519',-0.425,-0.240
'17:09.522',-0.410,-0.245
'17:09.525',-0.410,-0.275
'17:09.528',-0.435,-0.285
'17:09.531',-0.445,-0.300
'17:09.533',-0.450,-0.310
'17:09.536',-0.460,-0.290
'17:09.539',-0.465,-0.290
'17:09.542',-0.475,-0.265
'17:09.544',-0.480,-0.245
'17:09.547',-0.485,-0.230
'17:09.550',-0.490,-0.220
'17:09.553',-0.500,-0.230
'17:09.556',-0.505,-0.240
'17:09.558',-0.525,-0.240
'17:09.561',-0.535,-0.245
'17:09.564',-0.550,-0.245
'17:09.567',-0.555,-0.230
'17:09.569',-0.560,-0.230
'17:09.572',-0.555,-0.220
'17:09.575',-0.540,-0.210
'17:09.578',-0.535,-0.210
'17:09.581',-0.520,-0.210
'17:09.583',-0.515,-0.225
'17:09.586',-0.515,-0.225
'17:09.589',-0.520,-0.230
'17:09.592',-0.515,-0.235
'17:09.594',-0.520,-0.240
'17:09.597',-0.515,-0.245
'17:09.600',-0.520,-0.240
'17:09.603',-0.515,-0.235
'17:09.606',-0.485,-0.230
'17:09.608',-0.480,-0.235
'17:09.611',-0.465,-0.230
'17:09.614',-0.455,-0.215
'17:09.617',-0.445,-0.245
'17:09.619',-0.440,-0.240
'17:09.622',-0.400,-0.260
'17:09.625',-0.385,-0.265
'17:09.628',-0.350,-0.270
'17:09.631',-0.295,-0.270
'17:09.633',-0.200,-0.270
'17:09.636',-0.125,-0.270
'17:09.639',-0.005,-0.265
'17:09.642',0.130,-0.250
'17:09.644',0.280,-0.250
'17:09.647',0.470,-0.255
'17:09.650',0.660,-0.285
'17:09.653',0.815,-0.320
'17:09.656',0.945,-0.380
'17:09.658',1.060,-0.445
'17:09.661',1.135,-0.505
'17:09.664',1.215,-0.585
'17:09.667',1.315,-0.675
'17:09.669',1.435,-0.750
'17:09.672',1.525,-0.830
'17:09.675',1.505,-0.925
'17:09.678',1.350,-1.025
'17:09.681',1.065,-1.095
'17:09.683',0.675,-1.165
'17:09.686',0.225,-1.195
'17:09.689',-0.180,-1.210
'17:09.692',-0.500,-1.195
'17:09.694',-0.705,-1.150
'17:09.697',-0.810,-1.085
'17:09.700',-0.805,-0.985
'17:09.703',-0.785,-0.895
'17:09.706',-0.710,-0.800
'17:09.708',-0.675,-0.725
'17:09.711',-0.630,-0.645
'17:09.714',-0.600,-0.580
'17:09.717',-0.585,-0.525
'17:09.719',-0.585,-0.470
'17:09.722',-0.590,-0.405
'17:09.725',-0.595,-0.360
'17:09.728',-0.625,-0.330
'17:09.731',-0.635,-0.305
'17:09.733',-0.645,-0.275
'17:09.736',-0.640,-0.280
'17:09.739',-0.635,-0.275
'17:09.742',-0.635,-0.265
'17:09.744',-0.640,-0.265
'17:09.747',-0.630,-0.255
'17:09.750',-0.625,-0.250
'17:09.753',-0.630,-0.235
'17:09.756',-0.635,-0.245
'17:09.758',-0.645,-0.250
'17:09.761',-0.650,-0.255
'17:09.764',-0.665,-0.265
'17:09.767',-0.670,-0.250
'17:09.769',-0.675,-0.255
'17:09.772',-0.675,-0.230
'17:09.775',-0.670,-0.235
'17:09.778',-0.665,-0.230
'17:09.781',-0.665,-0.215
'17:09.783',-0.660,-0.225
'17:09.786',-0.665,-0.230
'17:09.789',-0.675,-0.225
'17:09.792',-0.685,-0.240
'17:09.794',-0.695,-0.250
'17:09.797',-0.705,-0.260
'17:09.800',-0.710,-0.255
'17:09.803',-0.695,-0.245
'17:09.806',-0.695,-0.240
'17:09.808',-0.685,-0.235
'17:09.811',-0.700,-0.225
'17:09.814',-0.690,-0.230
'17:09.817',-0.695,-0.230
'17:09.819',-0.720,-0.235
'17:09.822',-0.710,-0.235
'17:09.825',-0.725,-0.240
'17:09.828',-0.725,-0.240
'17:09.831',-0.735,-0.250
'17:09.833',-0.740,-0.230
'17:09.836',-0.750,-0.235
'17:09.839',-0.745,-0.225
'17:09.842',-0.740,-0.220
'17:09.844',-0.740,-0.220
'17:09.847',-0.740,-0.215
'17:09.850',-0.760,-0.215
'17:09.853',-0.740,-0.215
'17:09.856',-0.750,-0.235
'17:09.858',-0.755,-0.215
'17:09.861',-0.755,-0.230
'17:09.864',-0.770,-0.230
'17:09.867',-0.765,-0.220
'17:09.869',-0.760,-0.225
'17:09.872',-0.760,-0.210
'17:09.875',-0.755,-0.200
'17:09.878',-0.740,-0.190
'17:09.881',-0.725,-0.170
'17:09.883',-0.725,-0.185
'17:09.886',-0.715,-0.170
'17:09.889',-0.705,-0.180
'17:09.892',-0.720,-0.200
'17:09.894',-0.710,-0.195
'17:09.897',-0.710,-0.190
'17:09.900',-0.700,-0.195
'17:09.903',-0.695,-0.185
'17:09.906',-0.685,-0.170
'17:09.908',-0.660,-0.160
'17:09.911',-0.640,-0.160
'17:09.914',-0.625,-0.150
'17:09.917',-0.600,-0.165
'17:09.919',-0.590,-0.160
'17:09.922',-0.570,-0.175
'17:09.925',-0.560,-0.185
'17:09.928',-0.545,-0.185
'17:09.931',-0.535,-0.195
'17:09.933',-0.515,-0.195
'17:09.936',-0.505,-0.185
'17:09.939',-0.480,-0.195
'17:09.942',-0.475,-0.180
'17:09.944',-0.455,-0.195
'17:09.947',-0.450,-0.185
'17:09.950',-0.440,-0.215
'17:09.953',-0.425,-0.230
'17:09.956',-0.435,-0.225
'17:09.958',-0.440,-0.235
'17:09.961',-0.445,-0.255
'17:09.964',-0.445,-0.270
'17:09.967',-0.450,-0.265
'17:09.969',-0.450,-0.260
'17:09.972',-0.450,-0.260
'17:09.975',-0.445,-0.260
'17:09.978',-0.440,-0.260
'17:09.981',-0.435,-0.255
'17:09.983',-0.445,-0.270
'17:09.986',-0.450,-0.275
'17:09.989',-0.460,-0.290
'17:09.992',-0.465,-0.295
'17:09.994',-0.480,-0.305
'17:09.997',-0.485,-0.315
'17:10.000',-0.495,-0.300
'17:10.003',-0.495,-0.290
'17:10.006',-0.495,-0.290
'17:10.008',-0.490,-0.290
'17:10.011',-0.485,-0.285
'17:10.014',-0.480,-0.290
'17:10.017',-0.475,-0.295
'17:10.019',-0.485,-0.300
'17:10.022',-0.485,-0.315
'17:10.025',-0.495,-0.300
'17:10.028',-0.495,-0.325
'17:10.031',-0.515,-0.330
'17:10.033',-0.525,-0.320
'17:10.036',-0.525,-0.315
'17:10.039',-0.520,-0.320
'17:10.042',-0.525,-0.310
'17:10.044',-0.515,-0.295
'17:10.047',-0.505,-0.295
'17:10.050',-0.515,-0.305
'17:10.053',-0.515,-0.300
'17:10.056',-0.520,-0.315
'17:10.058',-0.530,-0.315
'17:10.061',-0.535,-0.330
'17:10.064',-0.545,-0.325
'17:10.067',-0.555,-0.320
'17:10.069',-0.560,-0.330
'17:10.072',-0.545,-0.310
'17:10.075',-0.535,-0.315
'17:10.078',-0.535,-0.285
'17:10.081',-0.540,-0.295
'17:10.083',-0.545,-0.290
'17:10.086',-0.535,-0.290
'17:10.089',-0.550,-0.295
'17:10.092',-0.550,-0.310
'17:10.094',-0.555,-0.310
'17:10.097',-0.560,-0.310
'17:10.100',-0.570,-0.310
'17:10.103',-0.570,-0.300
'17:10.106',-0.565,-0.300
'17:10.108',-0.570,-0.295
'17:10.111',-0.555,-0.280
'17:10.114',-0.545,-0.270
'17:10.117',-0.535,-0.275
'17:10.119',-0.545,-0.285
'17:10.122',-0.550,-0.295
'17:10.125',-0.555,-0.295
'17:10.128',-0.565,-0.310
'17:10.131',-0.570,-0.310
'17:10.133',-0.575,-0.300
'17:10.136',-0.565,-0.290
'17:10.139',-0.565,-0.290
'17:10.142',-0.555,-0.285
'17:10.144',-0.545,-0.270
'17:10.147',-0.530,-0.270
'17:10.150',-0.530,-0.280
'17:10.153',-0.530,-0.290
'17:10.156',-0.530,-0.285
'17:10.158',-0.545,-0.295
'17:10.161',-0.540,-0.300
'17:10.164',-0.560,-0.310
'17:10.167',-0.555,-0.300
'17:10.169',-0.545,-0.310
'17:10.172',-0.540,-0.295
'17:10.175',-0.540,-0.290
'17:10.178',-0.535,-0.290
'17:10.181',-0.520,-0.285
'17:10.183',-0.520,-0.285
'17:10.186',-0.515,-0.295
'17:10.189',-0.510,-0.305
'17:10.192',-0.520,-0.310
'17:10.194',-0.520,-0.325
'17:10.197',-0.520,-0.320
'17:10.200',-0.535,-0.310
'17:10.203',-0.525,-0.305
'17:10.206',-0.520,-0.295
'17:10.208',-0.510,-0.290
'17:10.211',-0.485,-0.280
'17:10.214',-0.480,-0.265
'17:10.217',-0.475,-0.270
'17:10.219',-0.470,-0.280
'17:10.222',-0.470,-0.285
'17:10.225',-0.480,-0.285
'17:10.228',-0.485,-0.285
'17:10.231',-0.485,-0.285
'17:10.233',-0.480,-0.275
'17:10.236',-0.480,-0.260
'17:10.239',-0.470,-0.245
'17:10.242',-0.460,-0.235
'17:10.244',-0.440,-0.230
'17:10.247',-0.425,-0.215
'17:10.250',-0.430,-0.230
'17:10.253',-0.405,-0.230
'17:10.256',-0.395,-0.240
'17:10.258',-0.380,-0.250
'17:10.261',-0.390,-0.265
'17:10.264',-0.375,-0.280
'17:10.267',-0.385,-0.290
'17:10.269',-0.385,-0.310
'17:10.272',-0.390,-0.310
'17:10.275',-0.380,-0.325
'17:10.278',-0.410,-0.340
'17:10.281',-0.395,-0.340
'17:10.283',-0.410,-0.350
'17:10.286',-0.425,-0.355
'17:10.289',-0.440,-0.350
'17:10.292',-0.440,-0.340
'17:10.294',-0.460,-0.345
'17:10.297',-0.480,-0.340
'17:10.300',-0.495,-0.330
'17:10.303',-0.510,-0.320
'17:10.306',-0.515,-0.305
'17:10.308',-0.505,-0.295
'17:10.311',-0.505,-0.295
'17:10.314',-0.510,-0.270
'17:10.317',-0.515,-0.290
'17:10.319',-0.525,-0.285
'17:10.322',-0.550,-0.290
'17:10.325',-0.555,-0.295
'17:10.328',-0.565,-0.300
'17:10.331',-0.565,-0.305
'17:10.333',-0.565,-0.295
'17:10.336',-0.565,-0.300
'17:10.339',-0.550,-0.285
'17:10.342',-0.555,-0.285
'17:10.344',-0.535,-0.280
'17:10.347',-0.525,-0.270
'17:10.350',-0.530,-0.295
'17:10.353',-0.525,-0.295
'17:10.356',-0.535,-0.315
'17:10.358',-0.525,-0.300
'17:10.361',-0.520,-0.325
'17:10.364',-0.520,-0.330
'17:10.367',-0.525,-0.310
'17:10.369',-0.505,-0.320
'17:10.372',-0.470,-0.320
'17:10.375',-0.415,-0.305
'17:10.378',-0.340,-0.305
'17:10.381',-0.260,-0.310
'17:10.383',-0.150,-0.310
'17:10.386',-0.010,-0.320
'17:10.389',0.155,-0.325
'17:10.392',0.355,-0.370
'17:10.394',0.585,-0.400
'17:10.397',0.790,-0.455
'17:10.400',0.985,-0.520
'17:10.403',1.135,-0.635
'17:10.406',1.280,-0.740
'17:10.408',1.440,-0.870
'17:10.411',1.570,-0.965
'17:10.414',1.605,-1.090
'17:10.417',1.470,-1.215
'17:10.419',1.175,-1.320
'17:10.422',0.735,-1.390
'17:10.425',0.250,-1.450
'17:10.428',-0.205,-1.460
'17:10.431',-0.565,-1.430
'17:10.433',-0.800,-1.345
'17:10.436',-0.880,-1.235
'17:10.439',-0.860,-1.120
'17:10.442',-0.805,-0.995
'17:10.444',-0.755,-0.890
'17:10.447',-0.695,-0.800
'17:10.450',-0.680,-0.745
'17:10.453',-0.660,-0.685
'17:10.456',-0.660,-0.620
'17:10.458',-0.680,-0.580
'17:10.461',-0.685,-0.520
'17:10.464',-0.695,-0.455
'17:10.467',-0.705,-0.405
'17:10.469',-0.715,-0.365
'17:10.472',-0.715,-0.330
'17:10.475',-0.710,-0.325
'17:10.478',-0.710,-0.320
'17:10.481',-0.705,-0.310
'17:10.483',-0.700,-0.315
'17:10.486',-0.710,-0.310
'17:10.489',-0.705,-0.320
'17:10.492',-0.705,-0.315
'17:10.494',-0.725,-0.315
'17:10.497',-0.740,-0.310
'17:10.500',-0.755,-0.295
'17:10.503',-0.745,-0.290
'17:10.506',-0.755,-0.280
'17:10.508',-0.750,-0.265
'17:10.511',-0.750,-0.270
'17:10.514',-0.740,-0.265
'17:10.517',-0.745,-0.270
'17:10.519',-0.750,-0.260
'17:10.522',-0.750,-0.280
'17:10.525',-0.755,-0.285
'17:10.528',-0.775,-0.285
'17:10.531',-0.765,-0.295
'17:10.533',-0.775,-0.295
'17:10.536',-0.780,-0.295
'17:10.539',-0.780,-0.270
'17:10.542',-0.770,-0.275
'17:10.544',-0.770,-0.270
'17:10.547',-0.770,-0.250
'17:10.550',-0.780,-0.265
'17:10.553',-0.780,-0.275
'17:10.556',-0.775,-0.285
'17:10.558',-0.800,-0.275
'17:10.561',-0.805,-0.300
'17:10.564',-0.820,-0.300
'17:10.567',-0.820,-0.280
'17:10.569',-0.815,-0.275
'17:10.572',-0.825,-0.275
'17:10.575',-0.825,-0.265
'17:10.578',-0.825,-0.250
'17:10.581',-0.810,-0.240
'17:10.583',-0.825,-0.260
'17:10.586',-0.835,-0.250
'17:10.589',-0.845,-0.260
'17:10.592',-0.855,-0.255
'17:10.594',-0.865,-0.260
'17:10.597',-0.875,-0.265
'17:10.600',-0.885,-0.255
'17:10.603',-0.880,-0.260
'17:10.606',-0.885,-0.250
'17:10.608',-0.880,-0.235
'17:10.611',-0.870,-0.230
'17:10.614',-0.875,-0.215
'17:10.617',-0.875,-0.210
'17:10.619',-0.870,-0.210
'17:10.622',-0.880,-0.220
'17:10.625',-0.890,-0.220
'17:10.628',-0.885,-0.225
'17:10.631',-0.890,-0.225
'17:10.633',-0.890,-0.225
'17:10.636',-0.880,-0.220
'17:10.639',-0.885,-0.210
'17:10.642',-0.870,-0.195
'17:10.644',-0.870,-0.185
'17:10.647',-0.860,-0.160
'17:10.650',-0.845,-0.170
'17:10.653',-0.840,-0.175
'17:10.656',-0.835,-0.175
'17:10.658',-0.835,-0.180
'17:10.661',-0.815,-0.180
'17:10.664',-0.825,-0.190
'17:10.667',-0.805,-0.190
'17:10.669',-0.810,-0.175
'17:10.672',-0.790,-0.175
'17:10.675',-0.775,-0.165
'17:10.678',-0.750,-0.165
'17:10.681',-0.745,-0.150
'17:10.683',-0.730,-0.175
'17:10.686',-0.690,-0.160
'17:10.689',-0.680,-0.180
'17:10.692',-0.685,-0.195
'17:10.694',-0.670,-0.200
'17:10.697',-0.665,-0.200
'17:10.700',-0.660,-0.205
'17:10.703',-0.645,-0.195
'17:10.706',-0.640,-0.210
'17:10.708',-0.620,-0.195
'17:10.711',-0.600,-0.205
'17:10.714',-0.585,-0.200
'17:10.717',-0.565,-0.215
'17:10.719',-0.585,-0.225
'17:10.722',-0.575,-0.245
'17:10.725',-0.580,-0.245
'17:10.728',-0.585,-0.260
'17:10.731',-0.580,-0.275
'17:10.733',-0.590,-0.265
'17:10.736',-0.585,-0.270
'17:10.739',-0.585,-0.260
'17:10.742',-0.575,-0.280
'17:10.744',-0.570,-0.270
'17:10.747',-0.575,-0.275
'17:10.750',-0.570,-0.280
'17:10.753',-0.580,-0.295
'17:10.756',-0.575,-0.295
'17:10.758',-0.585,-0.310
'17:10.761',-0.590,-0.325
'17:10.764',-0.600,-0.335
'17:10.767',-0.605,-0.330
'17:10.769',-0.605,-0.330
'17:10.772',-0.605,-0.335
'17:10.775',-0.600,-0.320
'17:10.778',-0.595,-0.305
'17:10.781',-0.580,-0.300
'17:10.783',-0.585,-0.320
'17:10.786',-0.595,-0.325
'17:10.789',-0.590,-0.340
'17:10.792',-0.600,-0.340
'17:10.794',-0.605,-0.350
'17:10.797',-0.615,-0.355
'17:10.800',-0.620,-0.340
'17:10.803',-0.615,-0.335
'17:10.806',-0.615,-0.340
'17:10.808',-0.615,-0.335
'17:10.811',-0.620,-0.335
'17:10.814',-0.630,-0.330
'17:10.817',-0.620,-0.330
'17:10.819',-0.620,-0.340
'17:10.822',-0.635,-0.340
'17:10.825',-0.645,-0.340
'17:10.828',-0.645,-0.350
'17:10.831',-0.660,-0.350
'17:10.833',-0.655,-0.345
'17:10.836',-0.655,-0.350
'17:10.839',-0.665,-0.340
'17:10.842',-0.655,-0.335
'17:10.844',-0.650,-0.330
'17:10.847',-0.650,-0.330
'17:10.850',-0.645,-0.325
'17:10.853',-0.655,-0.335
'17:10.856',-0.665,-0.330
'17:10.858',-0.670,-0.335
'17:10.861',-0.675,-0.350
'17:10.864',-0.695,-0.350
'17:10.867',-0.685,-0.340
'17:10.869',-0.700,-0.335
'17:10.872',-0.705,-0.320
'17:10.875',-0.680,-0.320
'17:10.878',-0.680,-0.305
'17:10.881',-0.680,-0.305
'17:10.883',-0.680,-0.300
'17:10.886',-0.670,-0.315
'17:10.889',-0.680,-0.310
'17:10.892',-0.685,-0.320
'17:10.894',-0.690,-0.325
'17:10.897',-0.690,-0.330
'17:10.900',-0.680,-0.325
'17:10.903',-0.680,-0.315
'17:10.906',-0.670,-0.300
'17:10.908',-0.665,-0.290
'17:10.911',-0.645,-0.290
'17:10.914',-0.625,-0.290
'17:10.917',-0.630,-0.295
'17:10.919',-0.610,-0.290
'17:10.922',-0.610,-0.290
'17:10.925',-0.615,-0.305
'17:10.928',-0.625,-0.300
'17:10.931',-0.620,-0.310
'17:10.933',-0.620,-0.290
'17:10.936',-0.605,-0.295
'17:10.939',-0.600,-0.270
'17:10.942',-0.595,-0.275
'17:10.944',-0.580,-0.260
'17:10.947',-0.560,-0.245
'17:10.950',-0.555,-0.255
'17:10.953',-0.545,-0.240
'17:10.956',-0.545,-0.250
'17:10.958',-0.535,-0.255
'17:10.961',-0.530,-0.265
'17:10.964',-0.515,-0.255
'17:10.967',-0.510,-0.265
'17:10.969',-0.500,-0.270
'17:10.972',-0.495,-0.270
'17:10.975',-0.480,-0.290
'17:10.978',-0.465,-0.290
'17:10.981',-0.465,-0.305
'17:10.983',-0.465,-0.330
'17:10.986',-0.475,-0.355
'17:10.989',-0.475,-0.385
'17:10.992',-0.495,-0.395
'17:10.994',-0.515,-0.405
'17:10.997',-0.530,-0.395
'17:11.000',-0.545,-0.380
'17:11.003',-0.570,-0.350
'17:11.006',-0.570,-0.340
'17:11.008',-0.570,-0.340
'17:11.011',-0.580,-0.330
'17:11.014',-0.590,-0.325
'17:11.017',-0.595,-0.310
'17:11.019',-0.620,-0.310
'17:11.022',-0.620,-0.315
'17:11.025',-0.645,-0.325
'17:11.028',-0.665,-0.330
'17:11.031',-0.665,-0.325
'17:11.033',-0.675,-0.325
'17:11.036',-0.670,-0.320
'17:11.039',-0.650,-0.305
'17:11.042',-0.640,-0.305
'17:11.044',-0.655,-0.295
'17:11.047',-0.640,-0.300
'17:11.050',-0.625,-0.305
'17:11.053',-0.625,-0.300
'17:11.056',-0.635,-0.315
'17:11.058',-0.620,-0.325
'17:11.061',-0.630,-0.340
'17:11.064',-0.630,-0.345
'17:11.067',-0.625,-0.335
'17:11.069',-0.620,-0.330
'17:11.072',-0.620,-0.330
'17:11.075',-0.600,-0.315
'17:11.078',-0.590,-0.305
'17:11.081',-0.555,-0.310
'17:11.083',-0.530,-0.310
'17:11.086',-0.500,-0.325
'17:11.089',-0.465,-0.330
'17:11.092',-0.410,-0.340
'17:11.094',-0.350,-0.350
'17:11.097',-0.255,-0.360
'17:11.100',-0.170,-0.365
'17:11.103',-0.060,-0.375
'17:11.106',0.090,-0.365
'17:11.108',0.265,-0.390
'17:11.111',0.445,-0.410
'17:11.114',0.620,-0.445
'17:11.117',0.795,-0.525
'17:11.119',0.935,-0.605
'17:11.122',1.070,-0.720
'17:11.125',1.210,-0.845
'17:11.128',1.330,-0.955
'17:11.131',1.440,-1.085
'17:11.133',1.470,-1.180
'17:11.136',1.370,-1.305
'17:11.139',1.130,-1.390
'17:11.142',0.770,-1.480
'17:11.144',0.350,-1.525
'17:11.147',-0.070,-1.540
'17:11.150',-0.425,-1.520
'17:11.153',-0.680,-1.475
'17:11.156',-0.805,-1.380
'17:11.158',-0.850,-1.280
'17:11.161',-0.850,-1.155
'17:11.164',-0.815,-1.060
'17:11.167',-0.785,-0.960
'17:11.169',-0.770,-0.865
'17:11.172',-0.745,-0.805
'17:11.175',-0.730,-0.715
'17:11.178',-0.720,-0.645
'17:11.181',-0.715,-0.555
'17:11.183',-0.725,-0.475
'17:11.186',-0.735,-0.410
'17:11.189',-0.750,-0.375
'17:11.192',-0.755,-0.345
'17:11.194',-0.775,-0.340
'17:11.197',-0.775,-0.345
'17:11.200',-0.780,-0.340
'17:11.203',-0.785,-0.325
'17:11.206',-0.780,-0.320
'17:11.208',-0.770,-0.315
'17:11.211',-0.770,-0.300
'17:11.214',-0.775,-0.290
'17:11.217',-0.765,-0.275
'17:11.219',-0.775,-0.275
'17:11.222',-0.780,-0.295
'17:11.225',-0.790,-0.290
'17:11.228',-0.790,-0.295
'17:11.231',-0.795,-0.320
'17:11.233',-0.815,-0.310
'17:11.236',-0.815,-0.300
'17:11.239',-0.810,-0.295
'17:11.242',-0.810,-0.285
'17:11.244',-0.785,-0.280
'17:11.247',-0.800,-0.270
'17:11.250',-0.800,-0.270
'17:11.253',-0.795,-0.270
'17:11.256',-0.805,-0.280
'17:11.258',-0.810,-0.290
'17:11.261',-0.815,-0.305
'17:11.264',-0.825,-0.295
'17:11.267',-0.835,-0.295
'17:11.269',-0.835,-0.285
'17:11.272',-0.835,-0.275
'17:11.275',-0.835,-0.275
'17:11.278',-0.830,-0.270
'17:11.281',-0.820,-0.255
'17:11.283',-0.820,-0.260
'17:11.286',-0.830,-0.265
'17:11.289',-0.850,-0.280
'17:11.292',-0.860,-0.270
'17:11.294',-0.865,-0.280
'17:11.297',-0.865,-0.280
'17:11.300',-0.880,-0.280
'17:11.303',-0.880,-0.270
'17:11.306',-0.890,-0.270
'17:11.308',-0.870,-0.255
'17:11.311',-0.865,-0.245
'17:11.314',-0.870,-0.245
'17:11.317',-0.870,-0.255
'17:11.319',-0.870,-0.235
'17:11.322',-0.875,-0.240
'17:11.325',-0.885,-0.250
'17:11.328',-0.900,-0.250
'17:11.331',-0.895,-0.270
'17:11.333',-0.900,-0.245
'17:11.336',-0.895,-0.230
'17:11.339',-0.905,-0.220
'17:11.342',-0.875,-0.210
'17:11.344',-0.875,-0.190
'17:11.347',-0.860,-0.200
'17:11.350',-0.860,-0.180
'17:11.353',-0.845,-0.190
'17:11.356',-0.850,-0.190
'17:11.358',-0.845,-0.190
'17:11.361',-0.830,-0.200
'17:11.364',-0.835,-0.195
'17:11.367',-0.820,-0.190
'17:11.369',-0.820,-0.190
'17:11.372',-0.805,-0.180
'17:11.375',-0.775,-0.175
'17:11.378',-0.760,-0.165
'17:11.381',-0.730,-0.160
'17:11.383',-0.695,-0.165
'17:11.386',-0.700,-0.165
'17:11.389',-0.670,-0.185
'17:11.392',-0.660,-0.200
'17:11.394',-0.630,-0.200
'17:11.397',-0.630,-0.215
'17:11.400',-0.610,-0.220
'17:11.403',-0.605,-0.230
'17:11.406',-0.595,-0.235
'17:11.408',-0.570,-0.230
'17:11.411',-0.575,-0.230
'17:11.414',-0.565,-0.225
'17:11.417',-0.560,-0.245
'17:11.419',-0.575,-0.265
'17:11.422',-0.570,-0.285
'17:11.425',-0.575,-0.280
'17:11.428',-0.575,-0.300
'17:11.431',-0.580,-0.295
'17:11.433',-0.585,-0.300
'17:11.436',-0.590,-0.305
'17:11.439',-0.585,-0.300
'17:11.442',-0.590,-0.305
'17:11.444',-0.590,-0.300
'17:11.447',-0.595,-0.295
'17:11.450',-0.600,-0.310
'17:11.453',-0.595,-0.310
'17:11.456',-0.590,-0.320
'17:11.458',-0.600,-0.325
'17:11.461',-0.605,-0.335
'17:11.464',-0.630,-0.350
'17:11.467',-0.625,-0.330
'17:11.469',-0.625,-0.335
'17:11.472',-0.615,-0.330
'17:11.475',-0.615,-0.325
'17:11.478',-0.610,-0.325
'17:11.481',-0.610,-0.320
'17:11.483',-0.600,-0.325
'17:11.486',-0.615,-0.325
'17:11.489',-0.610,-0.355
'17:11.492',-0.620,-0.340
'17:11.494',-0.630,-0.360
'17:11.497',-0.635,-0.360
'17:11.500',-0.645,-0.365
'17:11.503',-0.640,-0.350
'17:11.506',-0.640,-0.340
'17:11.508',-0.635,-0.330
'17:11.511',-0.640,-0.330
'17:11.514',-0.635,-0.325
'17:11.517',-0.620,-0.335
'17:11.519',-0.650,-0.335
'17:11.522',-0.645,-0.350
'17:11.525',-0.645,-0.345
'17:11.528',-0.650,-0.350
'17:11.531',-0.660,-0.355
'17:11.533',-0.660,-0.350
'17:11.536',-0.660,-0.355
'17:11.539',-0.675,-0.345
'17:11.542',-0.665,-0.335
'17:11.544',-0.655,-0.335
'17:11.547',-0.645,-0.330
'17:11.550',-0.655,-0.315
'17:11.553',-0.665,-0.320
'17:11.556',-0.665,-0.330
'17:11.558',-0.680,-0.335
'17:11.561',-0.685,-0.330
'17:11.564',-0.680,-0.340
'17:11.567',-0.695,-0.335
'17:11.569',-0.690,-0.335
'17:11.572',-0.680,-0.335
'17:11.575',-0.680,-0.315
'17:11.578',-0.665,-0.310
'17:11.581',-0.660,-0.305
'17:11.583',-0.660,-0.300
'17:11.586',-0.660,-0.305
'17:11.589',-0.655,-0.320
'17:11.592',-0.650,-0.330
'17:11.594',-0.655,-0.335
'17:11.597',-0.650,-0.335
'17:11.600',-0.645,-0.330
'17:11.603',-0.645,-0.325
'17:11.606',-0.630,-0.315
'17:11.608',-0.620,-0.305
'17:11.611',-0.610,-0.295
'17:11.614',-0.590,-0.290
'17:11.617',-0.580,-0.295
'17:11.619',-0.580,-0.295
'17:11.622',-0.575,-0.285
'17:11.625',-0.575,-0.290
'17:11.628',-0.565,-0.280
'17:11.631',-0.580,-0.285
'17:11.633',-0.565,-0.285
'17:11.636',-0.555,-0.280
'17:11.639',-0.545,-0.265
'17:11.642',-0.520,-0.250
'17:11.644',-0.510,-0.240
'17:11.647',-0.490,-0.240
'17:11.650',-0.470,-0.235
'17:11.653',-0.455,-0.250
'17:11.656',-0.445,-0.270
'17:11.658',-0.450,-0.290
'17:11.661',-0.445,-0.325
'17:11.664',-0.460,-0.340
'17:11.667',-0.460,-0.365
'17:11.669',-0.465,-0.380
'17:11.672',-0.460,-0.395
'17:11.675',-0.465,-0.400
'17:11.678',-0.455,-0.395
'17:11.681',-0.465,-0.390
'17:11.683',-0.460,-0.390
'17:11.686',-0.440,-0.385
'17:11.689',-0.440,-0.385
'17:11.692',-0.450,-0.390
'17:11.694',-0.435,-0.410
'17:11.697',-0.415,-0.420
'17:11.700',-0.390,-0.440
'17:11.703',-0.365,-0.450
'17:11.706',-0.320,-0.460
'17:11.708',-0.275,-0.485
'17:11.711',-0.215,-0.510
'17:11.714',-0.160,-0.525
'17:11.717',-0.070,-0.565
'17:11.719',0.035,-0.605
'17:11.722',0.150,-0.645
'17:11.725',0.275,-0.720
'17:11.728',0.410,-0.770
'17:11.731',0.570,-0.830
'17:11.733',0.725,-0.885
'17:11.736',0.885,-0.925
'17:11.739',1.040,-0.945
'17:11.742',1.175,-0.950
'17:11.744',1.280,-0.925
'17:11.747',1.345,-0.880
'17:11.750',1.375,-0.820
'17:11.753',1.375,-0.720
'17:11.756',1.330,-0.615
'17:11.758',1.275,-0.495
'17:11.761',1.190,-0.355
'17:11.764',1.090,-0.205
'17:11.767',0.980,-0.070
'17:11.769',0.850,0.090
'17:11.772',0.680,0.220
'17:11.775',0.495,0.345
'17:11.778',0.270,0.455
'17:11.781',0.030,0.500
'17:11.783',-0.180,0.490
'17:11.786',-0.370,0.425
'17:11.789',-0.520,0.310
'17:11.792',-0.620,0.160
'17:11.794',-0.690,0.020
'17:11.797',-0.735,-0.110
'17:11.800',-0.750,-0.190
'17:11.803',-0.780,-0.255
'17:11.806',-0.790,-0.270
'17:11.808',-0.795,-0.270
'17:11.811',-0.810,-0.265
'17:11.814',-0.805,-0.260
'17:11.817',-0.820,-0.255
'17:11.819',-0.845,-0.270
'17:11.822',-0.855,-0.285
'17:11.825',-0.850,-0.300
'17:11.828',-0.875,-0.305
'17:11.831',-0.880,-0.320
'17:11.833',-0.895,-0.325
'17:11.836',-0.905,-0.340
'17:11.839',-0.920,-0.315
'17:11.842',-0.905,-0.315
'17:11.844',-0.910,-0.305
'17:11.847',-0.900,-0.300
'17:11.850',-0.905,-0.305
'17:11.853',-0.910,-0.315
'17:11.856',-0.910,-0.325
'17:11.858',-0.950,-0.335
'17:11.861',-0.945,-0.340
'17:11.864',-0.945,-0.350
'17:11.867',-0.955,-0.355
'17:11.869',-0.965,-0.345
'17:11.872',-0.975,-0.335
'17:11.875',-0.970,-0.330
'17:11.878',-0.965,-0.320
'17:11.881',-0.990,-0.310
'17:11.883',-0.970,-0.320
'17:11.886',-0.985,-0.330
'17:11.889',-1.000,-0.335
'17:11.892',-1.005,-0.355
'17:11.894',-1.015,-0.355
'17:11.897',-1.035,-0.360
'17:11.900',-1.040,-0.360
'17:11.903',-1.060,-0.345
'17:11.906',-1.060,-0.340
'17:11.908',-1.070,-0.345
'17:11.911',-1.090,-0.320
'17:11.914',-1.090,-0.325
'17:11.917',-1.075,-0.340
'17:11.919',-1.100,-0.335
'17:11.922',-1.105,-0.335
'17:11.925',-1.130,-0.350
'17:11.928',-1.140,-0.355
'17:11.931',-1.160,-0.350
'17:11.933',-1.185,-0.350
'17:11.936',-1.195,-0.355
'17:11.939',-1.195,-0.355
'17:11.942',-1.195,-0.350
'17:11.944',-1.215,-0.350
'17:11.947',-1.215,-0.340
'17:11.950',-1.220,-0.355
'17:11.953',-1.225,-0.365
'17:11.956',-1.235,-0.370
'17:11.958',-1.255,-0.390
'17:11.961',-1.250,-0.405
'17:11.964',-1.265,-0.420
'17:11.967',-1.270,-0.420
'17:11.969',-1.270,-0.425
'17:11.972',-1.280,-0.430
'17:11.975',-1.265,-0.415
'17:11.978',-1.265,-0.430
'17:11.981',-1.245,-0.430
'17:11.983',-1.245,-0.450
'17:11.986',-1.230,-0.465
'17:11.989',-1.225,-0.485
'17:11.992',-1.215,-0.500
'17:11.994',-1.205,-0.520
'17:11.997',-1.190,-0.515
'17:12.000',-1.180,-0.535
'17:12.003',-1.155,-0.530
'17:12.006',-1.135,-0.540
'17:12.008',-1.105,-0.535
'17:12.011',-1.085,-0.545
'17:12.014',-1.040,-0.550
'17:12.017',-1.010,-0.550
'17:12.019',-0.995,-0.545
'17:12.022',-0.965,-0.565
'17:12.025',-0.935,-0.570
'17:12.028',-0.910,-0.590
'17:12.031',-0.890,-0.575
'17:12.033',-0.870,-0.575
'17:12.036',-0.840,-0.570
'17:12.039',-0.815,-0.565
'17:12.042',-0.795,-0.555
'17:12.044',-0.775,-0.540
'17:12.047',-0.745,-0.515
'17:12.050',-0.715,-0.525
'17:12.053',-0.710,-0.525
'17:12.056',-0.705,-0.515
'17:12.058',-0.690,-0.515
'17:12.061',-0.680,-0.515
'17:12.064',-0.690,-0.510
'17:12.067',-0.680,-0.500
'17:12.069',-0.695,-0.475
'17:12.072',-0.685,-0.470
'17:12.075',-0.675,-0.450
'17:12.078',-0.655,-0.440
'17:12.081',-0.630,-0.420
'17:12.083',-0.625,-0.415
'17:12.086',-0.620,-0.415
'17:12.089',-0.615,-0.410
'17:12.092',-0.625,-0.410
'17:12.094',-0.630,-0.405
'17:12.097',-0.640,-0.405
'17:12.100',-0.645,-0.395
'17:12.103',-0.645,-0.390
'17:12.106',-0.640,-0.370
'17:12.108',-0.630,-0.365
'17:12.111',-0.625,-0.350
'17:12.114',-0.620,-0.350
'17:12.117',-0.615,-0.345
'17:12.119',-0.625,-0.355
'17:12.122',-0.630,-0.355
'17:12.125',-0.625,-0.365
'17:12.128',-0.640,-0.385
'17:12.131',-0.650,-0.380
'17:12.133',-0.655,-0.365
'17:12.136',-0.655,-0.365
'17:12.139',-0.660,-0.355
'17:12.142',-0.660,-0.340
'17:12.144',-0.650,-0.335
'17:12.147',-0.650,-0.330
'17:12.150',-0.650,-0.345
'17:12.153',-0.660,-0.345
'17:12.156',-0.660,-0.345
'17:12.158',-0.660,-0.365
'17:12.161',-0.685,-0.375
'17:12.164',-0.685,-0.370
'17:12.167',-0.685,-0.365
'17:12.169',-0.685,-0.370
'17:12.172',-0.685,-0.365
'17:12.175',-0.705,-0.350
'17:12.178',-0.685,-0.360
'17:12.181',-0.680,-0.350
'17:12.183',-0.670,-0.355
'17:12.186',-0.685,-0.350
'17:12.189',-0.680,-0.365
'17:12.192',-0.680,-0.365
'17:12.194',-0.680,-0.365
'17:12.197',-0.675,-0.380
'17:12.200',-0.680,-0.385
'17:12.203',-0.665,-0.380
'17:12.206',-0.665,-0.370
'17:12.208',-0.650,-0.355
'17:12.211',-0.635,-0.355
'17:12.214',-0.630,-0.350
'17:12.217',-0.620,-0.355
'17:12.219',-0.630,-0.360
'17:12.222',-0.635,-0.360
'17:12.225',-0.635,-0.385
'17:12.228',-0.630,-0.375
'17:12.231',-0.630,-0.385
'17:12.233',-0.610,-0.385
'17:12.236',-0.605,-0.385
'17:12.239',-0.620,-0.365
'17:12.242',-0.605,-0.370
'17:12.244',-0.590,-0.365
'17:12.247',-0.580,-0.350
'17:12.250',-0.575,-0.345
'17:12.253',-0.575,-0.345
'17:12.256',-0.570,-0.360
'17:12.258',-0.570,-0.360
'17:12.261',-0.575,-0.360
'17:12.264',-0.580,-0.365
'17:12.267',-0.580,-0.370
'17:12.269',-0.570,-0.375
'17:12.272',-0.580,-0.360
'17:12.275',-0.575,-0.345
'17:12.278',-0.565,-0.330
'17:12.281',-0.560,-0.315
'17:12.283',-0.550,-0.330
'17:12.286',-0.550,-0.345
'17:12.289',-0.550,-0.340
'17:12.292',-0.560,-0.360
'17:12.294',-0.555,-0.360
'17:12.297',-0.550,-0.360
'17:12.300',-0.550,-0.360
'17:12.303',-0.540,-0.340
'17:12.306',-0.535,-0.325
'17:12.308',-0.525,-0.320
'17:12.311',-0.520,-0.320
'17:12.314',-0.510,-0.300
'17:12.317',-0.500,-0.300
'17:12.319',-0.510,-0.305
'17:12.322',-0.510,-0.300
'17:12.325',-0.505,-0.300
'17:12.328',-0.515,-0.295
'17:12.331',-0.495,-0.295
'17:12.333',-0.500,-0.285
'17:12.336',-0.490,-0.280
'17:12.339',-0.485,-0.270
'17:12.342',-0.455,-0.255
'17:12.344',-0.450,-0.255
'17:12.347',-0.430,-0.250
'17:12.350',-0.415,-0.255
'17:12.353',-0.420,-0.265
'17:12.356',-0.395,-0.280
'17:12.358',-0.405,-0.300
'17:12.361',-0.400,-0.340
'17:12.364',-0.410,-0.370
'17:12.367',-0.440,-0.390
'17:12.369',-0.445,-0.395
'17:12.372',-0.440,-0.395
'17:12.375',-0.455,-0.385
'17:12.378',-0.465,-0.375
'17:12.381',-0.475,-0.355
'17:12.383',-0.475,-0.335
'17:12.386',-0.485,-0.340
'17:12.389',-0.510,-0.335
'17:12.392',-0.525,-0.330
'17:12.394',-0.540,-0.330
'17:12.397',-0.575,-0.335
'17:12.400',-0.590,-0.335
'17:12.403',-0.600,-0.335
'17:12.406',-0.605,-0.315
'17:12.408',-0.605,-0.320
'17:12.411',-0.595,-0.320
'17:12.414',-0.580,-0.305
'17:12.417',-0.555,-0.295
'17:12.419',-0.550,-0.310
'17:12.422',-0.550,-0.310
'17:12.425',-0.555,-0.325
'17:12.428',-0.550,-0.325
'17:12.431',-0.555,-0.325
'17:12.433',-0.555,-0.320
'17:12.436',-0.545,-0.315
'17:12.439',-0.525,-0.330
'17:12.442',-0.510,-0.315
'17:12.444',-0.505,-0.310
'17:12.447',-0.485,-0.315
'17:12.450',-0.445,-0.320
'17:12.453',-0.415,-0.330
'17:12.456',-0.395,-0.325
'17:12.458',-0.325,-0.330
'17:12.461',-0.255,-0.330
'17:12.464',-0.180,-0.340
'17:12.467',-0.080,-0.350
'17:12.469',0.065,-0.360
'17:12.472',0.220,-0.360
'17:12.475',0.410,-0.365
'17:12.478',0.600,-0.370
'17:12.481',0.790,-0.405
'17:12.483',0.965,-0.480
'17:12.486',1.080,-0.570
'17:12.489',1.210,-0.685
'17:12.492',1.330,-0.810
'17:12.494',1.430,-0.930
'17:12.497',1.465,-1.055
'17:12.500',1.360,-1.160
'17:12.503',1.120,-1.260
'17:12.506',0.765,-1.330
'17:12.508',0.355,-1.375
'17:12.511',-0.050,-1.395
'17:12.514',-0.365,-1.385
'17:12.517',-0.590,-1.340
'17:12.519',-0.720,-1.285
'17:12.522',-0.760,-1.205
'17:12.525',-0.760,-1.125
'17:12.528',-0.720,-1.035
'17:12.531',-0.710,-0.965
'17:12.533',-0.695,-0.895
'17:12.536',-0.690,-0.820
'17:12.539',-0.690,-0.750
'17:12.542',-0.675,-0.695
'17:12.544',-0.665,-0.630
'17:12.547',-0.655,-0.560
'17:12.550',-0.635,-0.500
'17:12.553',-0.635,-0.440
'17:12.556',-0.650,-0.405
'17:12.558',-0.665,-0.365
'17:12.561',-0.670,-0.360
'17:12.564',-0.690,-0.355
'17:12.567',-0.690,-0.365
'17:12.569',-0.690,-0.345
'17:12.572',-0.690,-0.340
'17:12.575',-0.680,-0.330
'17:12.578',-0.675,-0.315
'17:12.581',-0.680,-0.300
'17:12.583',-0.690,-0.295
'17:12.586',-0.695,-0.305
'17:12.589',-0.695,-0.305
'17:12.592',-0.695,-0.320
'17:12.594',-0.705,-0.320
'17:12.597',-0.710,-0.330
'17:12.600',-0.730,-0.315
'17:12.603',-0.710,-0.320
'17:12.606',-0.710,-0.300
'17:12.608',-0.710,-0.295
'17:12.611',-0.710,-0.280
'17:12.614',-0.710,-0.285
'17:12.617',-0.695,-0.280
'17:12.619',-0.700,-0.290
'17:12.622',-0.700,-0.295
'17:12.625',-0.725,-0.295
'17:12.628',-0.720,-0.295
'17:12.631',-0.745,-0.300
'17:12.633',-0.760,-0.300
'17:12.636',-0.750,-0.295
'17:12.639',-0.760,-0.305
'17:12.642',-0.770,-0.285
'17:12.644',-0.735,-0.285
'17:12.647',-0.750,-0.275
'17:12.650',-0.750,-0.275
'17:12.653',-0.760,-0.280
'17:12.656',-0.755,-0.290
'17:12.658',-0.770,-0.295
'17:12.661',-0.775,-0.300
'17:12.664',-0.785,-0.305
'17:12.667',-0.790,-0.290
'17:12.669',-0.790,-0.290
'17:12.672',-0.810,-0.280
'17:12.675',-0.795,-0.270
'17:12.678',-0.795,-0.260
'17:12.681',-0.800,-0.255
'17:12.683',-0.790,-0.240
'17:12.686',-0.790,-0.250
'17:12.689',-0.790,-0.260
'17:12.692',-0.805,-0.270
'17:12.694',-0.825,-0.265
'17:12.697',-0.840,-0.275
'17:12.700',-0.845,-0.260
'17:12.703',-0.855,-0.265
'17:12.706',-0.850,-0.245
'17:12.708',-0.830,-0.230
'17:12.711',-0.810,-0.235
'17:12.714',-0.795,-0.225
'17:12.717',-0.785,-0.225
'17:12.719',-0.780,-0.225
'17:12.722',-0.780,-0.235
'17:12.725',-0.795,-0.225
'17:12.728',-0.785,-0.230
'17:12.731',-0.780,-0.225
'17:12.733',-0.775,-0.210
'17:12.736',-0.770,-0.210
'17:12.739',-0.770,-0.200
'17:12.742',-0.755,-0.190
'17:12.744',-0.740,-0.175
'17:12.747',-0.725,-0.185
'17:12.750',-0.705,-0.190
'17:12.753',-0.695,-0.185
'17:12.756',-0.670,-0.190
'17:12.758',-0.660,-0.190
'17:12.761',-0.655,-0.190
'17:12.764',-0.640,-0.215
'17:12.767',-0.630,-0.210
'17:12.769',-0.610,-0.200
'17:12.772',-0.580,-0.200
'17:12.775',-0.575,-0.200
'17:12.778',-0.560,-0.200
'17:12.781',-0.530,-0.200
'17:12.783',-0.520,-0.205
'17:12.786',-0.505,-0.215
'17:12.789',-0.515,-0.225
'17:12.792',-0.510,-0.250
'17:12.794',-0.520,-0.250
'17:12.797',-0.510,-0.255
'17:12.800',-0.520,-0.270
'17:12.803',-0.515,-0.260
'17:12.806',-0.515,-0.270
'17:12.808',-0.500,-0.275
'17:12.811',-0.500,-0.275
'17:12.814',-0.495,-0.275
'17:12.817',-0.495,-0.280
'17:12.819',-0.500,-0.290
'17:12.822',-0.510,-0.310
'17:12.825',-0.515,-0.325
'17:12.828',-0.520,-0.325
'17:12.831',-0.540,-0.320
'17:12.833',-0.540,-0.330
'17:12.836',-0.540,-0.330
'17:12.839',-0.545,-0.320
'17:12.842',-0.550,-0.310
'17:12.844',-0.550,-0.310
'17:12.847',-0.545,-0.305
'17:12.850',-0.545,-0.310
