'Elapsed time','MLII','V1'
'hh:mm:ss.mmm','mV','mV'
'6:00.000',0.090,-0.260
'6:00.003',0.050,-0.200
'6:00.006',0.040,-0.155
'6:00.008',0.020,-0.130
'6:00.011',-0.025,-0.085
'6:00.014',-0.085,-0.045
'6:00.017',-0.115,0.010
'6:00.019',-0.150,0.060
'6:00.022',-0.165,0.135
'6:00.025',-0.200,0.175
'6:00.028',-0.240,0.185
'6:00.031',-0.280,0.230
'6:00.033',-0.330,0.245
'6:00.036',-0.360,0.305
'6:00.039',-0.380,0.325
'6:00.042',-0.390,0.355
'6:00.044',-0.395,0.350
'6:00.047',-0.410,0.345
'6:00.050',-0.420,0.355
'6:00.053',-0.435,0.385
'6:00.056',-0.425,0.405
'6:00.058',-0.420,0.420
'6:00.061',-0.420,0.430
'6:00.064',-0.435,0.415
'6:00.067',-0.450,0.445
'6:00.069',-0.445,0.455
'6:00.072',-0.420,0.480
'6:00.075',-0.425,0.490
'6:00.078',-0.440,0.480
'6:00.081',-0.445,0.495
'6:00.083',-0.455,0.505
'6:00.086',-0.450,0.540
'6:00.089',-0.450,0.565
'6:00.092',-0.450,0.565
'6:00.094',-0.455,0.570
'6:00.097',-0.475,0.570
'6:00.100',-0.470,0.600
'6:00.103',-0.475,0.630
'6:00.106',-0.485,0.650
'6:00.108',-0.470,0.680
'6:00.111',-0.475,0.685
'6:00.114',-0.490,0.680
'6:00.117',-0.510,0.720
'6:00.119',-0.500,0.755
'6:00.122',-0.500,0.785
'6:00.125',-0.505,0.805
'6:00.128',-0.520,0.795
'6:00.131',-0.535,0.805
'6:00.133',-0.545,0.805
'6:00.136',-0.555,0.845
'6:00.139',-0.540,0.870
'6:00.142',-0.540,0.880
'6:00.144',-0.555,0.890
'6:00.147',-0.590,0.880
'6:00.150',-0.605,0.890
'6:00.153',-0.580,0.895
'6:00.156',-0.565,0.925
'6:00.158',-0.575,0.920
'6:00.161',-0.595,0.915
'6:00.164',-0.605,0.905
'6:00.167',-0.630,0.890
'6:00.169',-0.625,0.885
'6:00.172',-0.605,0.905
'6:00.175',-0.580,0.880
'6:00.178',-0.595,0.850
'6:00.181',-0.605,0.830
'6:00.183',-0.635,0.805
'6:00.186',-0.615,0.815
'6:00.189',-0.585,0.795
'6:00.192',-0.565,0.755
'6:00.194',-0.550,0.705
'6:00.197',-0.555,0.655
'6:00.200',-0.550,0.610
'6:00.203',-0.525,0.585
'6:00.206',-0.495,0.575
'6:00.208',-0.460,0.545
'6:00.211',-0.425,0.485
'6:00.214',-0.415,0.425
'6:00.217',-0.405,0.410
'6:00.219',-0.385,0.390
'6:00.222',-0.355,0.370
'6:00.225',-0.315,0.350
'6:00.228',-0.315,0.315
'6:00.231',-0.305,0.270
'6:00.233',-0.290,0.255
'6:00.236',-0.270,0.245
'6:00.239',-0.260,0.240
'6:00.242',-0.230,0.230
'6:00.244',-0.240,0.200
'6:00.247',-0.255,0.155
'6:00.250',-0.235,0.180
'6:00.253',-0.230,0.185
'6:00.256',-0.215,0.190
'6:00.258',-0.205,0.165
'6:00.261',-0.235,0.145
'6:00.264',-0.230,0.135
'6:00.267',-0.220,0.125
'6:00.269',-0.205,0.140
'6:00.272',-0.195,0.175
'6:00.275',-0.170,0.170
'6:00.278',-0.160,0.175
'6:00.281',-0.165,0.160
'6:00.283',-0.135,0.190
'6:00.286',-0.070,0.220
'6:00.289',0.040,0.290
'6:00.292',0.160,0.315
'6:00.294',0.275,0.380
'6:00.297',0.390,0.425
'6:00.300',0.510,0.470
'6:00.303',0.635,0.535
'6:00.306',0.740,0.615
'6:00.308',0.870,0.670
'6:00.311',0.955,0.730
'6:00.314',1.040,0.795
'6:00.317',1.095,0.875
'6:00.319',1.155,0.965
'6:00.322',1.145,1.025
'6:00.325',1.045,1.070
'6:00.328',0.780,1.105
'6:00.331',0.380,1.145
'6:00.333',-0.075,1.200
'6:00.336',-0.480,1.240
'6:00.339',-0.810,1.260
'6:00.342',-1.075,1.240
'6:00.344',-1.250,1.190
'6:00.347',-1.370,1.140
'6:00.350',-1.460,1.115
'6:00.353',-1.525,1.095
'6:00.356',-1.625,1.070
'6:00.358',-1.730,1.025
'6:00.361',-1.830,0.970
'6:00.364',-1.885,0.900
'6:00.367',-1.920,0.875
'6:00.369',-1.920,0.870
'6:00.372',-1.920,0.885
'6:00.375',-1.940,0.875
'6:00.378',-1.955,0.845
'6:00.381',-1.975,0.835
'6:00.383',-1.985,0.815
'6:00.386',-1.975,0.815
'6:00.389',-1.940,0.775
'6:00.392',-1.890,0.720
'6:00.394',-1.820,0.665
'6:00.397',-1.705,0.610
'6:00.400',-1.580,0.600
'6:00.403',-1.420,0.610
'6:00.406',-1.260,0.660
'6:00.408',-1.130,0.665
'6:00.411',-1.015,0.660
'6:00.414',-0.965,0.640
'6:00.417',-0.915,0.630
'6:00.419',-0.880,0.640
'6:00.422',-0.845,0.645
'6:00.425',-0.780,0.630
'6:00.428',-0.780,0.585
'6:00.431',-0.775,0.520
'6:00.433',-0.750,0.460
'6:00.436',-0.710,0.370
'6:00.439',-0.625,0.305
'6:00.442',-0.535,0.220
'6:00.444',-0.465,0.135
'6:00.447',-0.405,0.070
'6:00.450',-0.350,0.015
'6:00.453',-0.305,-0.015
'6:00.456',-0.250,-0.050
'6:00.458',-0.200,-0.115
'6:00.461',-0.135,-0.185
'6:00.464',-0.100,-0.235
'6:00.467',-0.055,-0.260
'6:00.469',-0.015,-0.265
'6:00.472',0.020,-0.275
'6:00.475',0.025,-0.320
'6:00.478',0.060,-0.365
'6:00.481',0.060,-0.395
'6:00.483',0.080,-0.420
'6:00.486',0.090,-0.435
'6:00.489',0.130,-0.430
'6:00.492',0.195,-0.470
'6:00.494',0.230,-0.505
'6:00.497',0.250,-0.550
'6:00.500',0.290,-0.565
'6:00.503',0.330,-0.580
'6:00.506',0.365,-0.575
'6:00.508',0.405,-0.600
'6:00.511',0.415,-0.640
'6:00.514',0.430,-0.660
'6:00.517',0.445,-0.685
'6:00.519',0.500,-0.680
'6:00.522',0.560,-0.685
'6:00.525',0.600,-0.710
'6:00.528',0.600,-0.740
'6:00.531',0.655,-0.765
'6:00.533',0.675,-0.780
'6:00.536',0.710,-0.780
'6:00.539',0.765,-0.785
'6:00.542',0.810,-0.800
'6:00.544',0.825,-0.820
'6:00.547',0.850,-0.845
'6:00.550',0.870,-0.840
'6:00.553',0.895,-0.835
'6:00.556',0.935,-0.830
'6:00.558',0.965,-0.825
'6:00.561',1.000,-0.850
'6:00.564',1.010,-0.850
'6:00.567',1.025,-0.840
'6:00.569',1.055,-0.810
'6:00.572',1.090,-0.810
'6:00.575',1.105,-0.790
'6:00.578',1.115,-0.805
'6:00.581',1.140,-0.810
'6:00.583',1.145,-0.790
'6:00.586',1.145,-0.760
'6:00.589',1.170,-0.715
'6:00.592',1.190,-0.725
'6:00.594',1.170,-0.705
'6:00.597',1.145,-0.720
'6:00.600',1.145,-0.685
'6:00.603',1.145,-0.645
'6:00.606',1.140,-0.600
'6:00.608',1.130,-0.590
'6:00.611',1.105,-0.575
'6:00.614',1.065,-0.565
'6:00.617',1.035,-0.545
'6:00.619',1.010,-0.515
'6:00.622',0.995,-0.465
'6:00.625',0.970,-0.450
'6:00.628',0.925,-0.440
'6:00.631',0.875,-0.430
'6:00.633',0.815,-0.385
'6:00.636',0.795,-0.360
'6:00.639',0.780,-0.310
'6:00.642',0.760,-0.290
'6:00.644',0.715,-0.290
'6:00.647',0.660,-0.265
'6:00.650',0.600,-0.245
'6:00.653',0.565,-0.190
'6:00.656',0.520,-0.165
'6:00.658',0.490,-0.160
'6:00.661',0.455,-0.135
'6:00.664',0.385,-0.130
'6:00.667',0.340,-0.110
'6:00.669',0.305,-0.070
'6:00.672',0.265,-0.030
'6:00.675',0.235,-0.020
'6:00.678',0.175,-0.035
'6:00.681',0.140,-0.040
'6:00.683',0.105,-0.025
'6:00.686',0.085,-0.025
'6:00.689',0.070,0.010
'6:00.692',0.065,0.020
'6:00.694',0.020,0.010
'6:00.697',-0.015,0.005
'6:00.700',-0.050,-0.005
'6:00.703',-0.075,0.020
'6:00.706',-0.080,0.050
'6:00.708',-0.075,0.040
'6:00.711',-0.105,0.020
'6:00.714',-0.140,0.005
'6:00.717',-0.155,0.015
'6:00.719',-0.160,0.030
'6:00.722',-0.150,0.055
'6:00.725',-0.140,0.035
'6:00.728',-0.155,0.020
'6:00.731',-0.175,0.015
'6:00.733',-0.210,0.025
'6:00.736',-0.200,0.040
'6:00.739',-0.200,0.050
'6:00.742',-0.195,0.040
'6:00.744',-0.195,0.035
'6:00.747',-0.210,0.025
'6:00.750',-0.225,0.025
'6:00.753',-0.230,0.035
'6:00.756',-0.215,0.045
'6:00.758',-0.220,0.030
'6:00.761',-0.235,0.030
'6:00.764',-0.235,0.020
'6:00.767',-0.245,0.035
'6:00.769',-0.245,0.035
'6:00.772',-0.250,0.040
'6:00.775',-0.245,0.050
'6:00.778',-0.245,0.025
'6:00.781',-0.245,0.015
'6:00.783',-0.265,0.015
'6:00.786',-0.255,0.040
'6:00.789',-0.230,0.045
'6:00.792',-0.245,0.045
'6:00.794',-0.250,0.035
'6:00.797',-0.265,0.010
'6:00.800',-0.280,0.025
'6:00.803',-0.285,0.025
'6:00.806',-0.265,0.030
'6:00.808',-0.255,0.035
'6:00.811',-0.270,0.020
'6:00.814',-0.280,0.015
'6:00.817',-0.290,0.015
'6:00.819',-0.295,0.015
'6:00.822',-0.280,0.025
'6:00.825',-0.270,0.025
'6:00.828',-0.275,0.020
'6:00.831',-0.275,0.010
'6:00.833',-0.305,0.000
'6:00.836',-0.310,0.015
'6:00.839',-0.300,0.040
'6:00.842',-0.290,0.035
'6:00.844',-0.295,0.010
'6:00.847',-0.295,0.015
'6:00.850',-0.305,0.000
'6:00.853',-0.295,0.005
'6:00.856',-0.290,0.030
'6:00.858',-0.285,0.020
'6:00.861',-0.300,0.015
'6:00.864',-0.325,0.000
'6:00.867',-0.325,0.000
'6:00.869',-0.315,0.015
'6:00.872',-0.300,0.040
'6:00.875',-0.280,0.020
'6:00.878',-0.295,0.010
'6:00.881',-0.315,-0.010
'6:00.883',-0.340,0.000
'6:00.886',-0.345,0.020
'6:00.889',-0.325,0.040
'6:00.892',-0.305,0.035
'6:00.894',-0.305,0.015
'6:00.897',-0.305,0.005
'6:00.900',-0.325,0.005
'6:00.903',-0.340,0.010
'6:00.906',-0.320,0.025
'6:00.908',-0.305,0.015
'6:00.911',-0.315,-0.005
'6:00.914',-0.320,-0.015
'6:00.917',-0.325,-0.005
'6:00.919',-0.315,0.015
'6:00.922',-0.320,0.015
'6:00.925',-0.315,0.020
'6:00.928',-0.340,0.005
'6:00.931',-0.345,0.005
'6:00.933',-0.350,-0.005
'6:00.936',-0.335,0.000
'6:00.939',-0.325,0.015
'6:00.942',-0.295,0.030
'6:00.944',-0.320,0.000
'6:00.947',-0.345,-0.005
'6:00.950',-0.345,-0.005
'6:00.953',-0.340,0.015
'6:00.956',-0.325,0.020
'6:00.958',-0.300,0.025
'6:00.961',-0.295,0.010
'6:00.964',-0.310,0.010
'6:00.967',-0.320,0.015
'6:00.969',-0.335,0.025
'6:00.972',-0.315,0.025
'6:00.975',-0.295,0.025
'6:00.978',-0.320,0.020
'6:00.981',-0.320,0.000
'6:00.983',-0.325,0.015
'6:00.986',-0.320,0.020
'6:00.989',-0.315,0.045
'6:00.992',-0.310,0.045
'6:00.994',-0.315,0.015
'6:00.997',-0.330,0.000
'6:01.000',-0.340,0.015
'6:01.003',-0.340,0.035
'6:01.006',-0.325,0.045
'6:01.008',-0.290,0.045
'6:01.011',-0.295,0.025
'6:01.014',-0.330,0.020
'6:01.017',-0.335,0.015
'6:01.019',-0.325,0.025
'6:01.022',-0.310,0.040
'6:01.025',-0.295,0.035
'6:01.028',-0.300,0.030
'6:01.031',-0.325,0.010
'6:01.033',-0.335,0.020
'6:01.036',-0.330,0.030
'6:01.039',-0.330,0.045
'6:01.042',-0.305,0.040
'6:01.044',-0.310,0.030
'6:01.047',-0.305,0.030
'6:01.050',-0.325,0.015
'6:01.053',-0.325,0.050
'6:01.056',-0.305,0.055
'6:01.058',-0.300,0.045
'6:01.061',-0.315,0.055
'6:01.064',-0.320,0.035
'6:01.067',-0.325,0.020
'6:01.069',-0.320,0.050
'6:01.072',-0.305,0.055
'6:01.075',-0.295,0.055
'6:01.078',-0.305,0.045
'6:01.081',-0.330,0.025
'6:01.083',-0.340,0.030
'6:01.086',-0.320,0.055
'6:01.089',-0.295,0.055
'6:01.092',-0.290,0.065
'6:01.094',-0.295,0.050
'6:01.097',-0.320,0.035
'6:01.100',-0.335,0.020
'6:01.103',-0.325,0.050
'6:01.106',-0.320,0.075
'6:01.108',-0.300,0.045
'6:01.111',-0.290,0.050
'6:01.114',-0.295,0.025
'6:01.117',-0.310,0.030
'6:01.119',-0.320,0.030
'6:01.122',-0.305,0.050
'6:01.125',-0.300,0.055
'6:01.128',-0.295,0.035
'6:01.131',-0.300,0.035
'6:01.133',-0.305,0.035
'6:01.136',-0.315,0.055
'6:01.139',-0.300,0.045
'6:01.142',-0.290,0.040
'6:01.144',-0.300,0.030
'6:01.147',-0.320,0.015
'6:01.150',-0.325,0.025
'6:01.153',-0.310,0.040
'6:01.156',-0.280,0.050
'6:01.158',-0.275,0.040
'6:01.161',-0.285,0.035
'6:01.164',-0.310,0.025
'6:01.167',-0.330,0.030
'6:01.169',-0.315,0.025
'6:01.172',-0.285,0.050
'6:01.175',-0.265,0.065
'6:01.178',-0.280,0.035
'6:01.181',-0.295,0.040
'6:01.183',-0.310,0.030
'6:01.186',-0.310,0.045
'6:01.189',-0.300,0.060
'6:01.192',-0.275,0.055
'6:01.194',-0.275,0.035
'6:01.197',-0.295,0.020
'6:01.200',-0.285,0.035
'6:01.203',-0.295,0.050
'6:01.206',-0.285,0.070
'6:01.208',-0.275,0.070
'6:01.211',-0.285,0.055
'6:01.214',-0.290,0.050
'6:01.217',-0.295,0.035
'6:01.219',-0.290,0.045
'6:01.222',-0.265,0.065
'6:01.225',-0.265,0.065
'6:01.228',-0.265,0.050
'6:01.231',-0.290,0.040
'6:01.233',-0.295,0.050
'6:01.236',-0.285,0.055
'6:01.239',-0.270,0.060
'6:01.242',-0.240,0.065
'6:01.244',-0.255,0.040
'6:01.247',-0.250,0.025
'6:01.250',-0.255,0.025
'6:01.253',-0.240,0.035
'6:01.256',-0.220,0.045
'6:01.258',-0.195,0.055
'6:01.261',-0.195,0.065
'6:01.264',-0.205,0.040
'6:01.267',-0.205,0.055
'6:01.269',-0.205,0.060
'6:01.272',-0.190,0.070
'6:01.275',-0.190,0.075
'6:01.278',-0.190,0.060
'6:01.281',-0.210,0.045
'6:01.283',-0.210,0.045
'6:01.286',-0.205,0.080
'6:01.289',-0.170,0.055
'6:01.292',-0.160,0.045
'6:01.294',-0.160,0.045
'6:01.297',-0.185,0.010
'6:01.300',-0.200,0.010
'6:01.303',-0.215,0.030
'6:01.306',-0.185,0.045
'6:01.308',-0.180,0.045
'6:01.311',-0.180,0.035
'6:01.314',-0.180,0.020
'6:01.317',-0.200,0.040
'6:01.319',-0.200,0.050
'6:01.322',-0.185,0.040
'6:01.325',-0.185,0.045
'6:01.328',-0.200,0.030
'6:01.331',-0.215,0.015
'6:01.333',-0.230,0.020
'6:01.336',-0.250,0.030
'6:01.339',-0.235,0.045
'6:01.342',-0.245,0.040
'6:01.344',-0.240,0.020
'6:01.347',-0.270,-0.005
'6:01.350',-0.285,-0.005
'6:01.353',-0.260,0.015
'6:01.356',-0.235,0.015
'6:01.358',-0.215,0.020
'6:01.361',-0.225,0.025
'6:01.364',-0.245,0.010
'6:01.367',-0.265,0.015
'6:01.369',-0.255,0.020
'6:01.372',-0.245,0.045
'6:01.375',-0.230,0.040
'6:01.378',-0.245,0.025
'6:01.381',-0.260,0.020
'6:01.383',-0.255,0.025
'6:01.386',-0.260,0.025
'6:01.389',-0.245,0.040
'6:01.392',-0.235,0.035
'6:01.394',-0.225,0.020
'6:01.397',-0.235,0.000
'6:01.400',-0.235,0.015
'6:01.403',-0.230,0.035
'6:01.406',-0.225,0.070
'6:01.408',-0.220,0.090
'6:01.411',-0.220,0.095
'6:01.414',-0.235,0.080
'6:01.417',-0.245,0.070
'6:01.419',-0.225,0.045
'6:01.422',-0.180,0.005
'6:01.425',-0.115,-0.055
'6:01.428',-0.040,-0.170
'6:01.431',0.040,-0.280
'6:01.433',0.090,-0.395
'6:01.436',0.175,-0.505
'6:01.439',0.265,-0.625
'6:01.442',0.380,-0.745
'6:01.444',0.470,-0.840
'6:01.447',0.580,-0.965
'6:01.450',0.705,-1.020
'6:01.453',0.890,-1.075
'6:01.456',1.095,-1.090
'6:01.458',1.280,-1.125
'6:01.461',1.450,-1.140
'6:01.464',1.595,-1.155
'6:01.467',1.740,-1.145
'6:01.469',1.840,-1.105
'6:01.472',1.905,-1.080
'6:01.475',1.905,-1.095
'6:01.478',1.860,-1.060
'6:01.481',1.780,-1.075
'6:01.483',1.595,-1.080
'6:01.486',1.375,-1.055
'6:01.489',1.165,-1.010
'6:01.492',0.970,-0.975
'6:01.494',0.765,-0.935
'6:01.497',0.575,-0.890
'6:01.500',0.475,-0.840
'6:01.503',0.420,-0.730
'6:01.506',0.395,-0.640
'6:01.508',0.385,-0.555
'6:01.511',0.345,-0.475
'6:01.514',0.305,-0.430
'6:01.517',0.265,-0.370
'6:01.519',0.215,-0.295
'6:01.522',0.160,-0.230
'6:01.525',0.115,-0.190
'6:01.528',0.070,-0.145
'6:01.531',0.020,-0.105
'6:01.533',-0.020,-0.045
'6:01.536',-0.055,0.005
'6:01.539',-0.075,0.060
'6:01.542',-0.095,0.090
'6:01.544',-0.150,0.125
'6:01.547',-0.200,0.125
'6:01.550',-0.235,0.175
'6:01.553',-0.265,0.215
'6:01.556',-0.280,0.260
'6:01.558',-0.295,0.300
'6:01.561',-0.330,0.295
'6:01.564',-0.375,0.300
'6:01.567',-0.405,0.305
'6:01.569',-0.415,0.325
'6:01.572',-0.415,0.350
'6:01.575',-0.400,0.370
'6:01.578',-0.395,0.350
'6:01.581',-0.415,0.365
'6:01.583',-0.450,0.380
'6:01.586',-0.450,0.395
'6:01.589',-0.425,0.410
'6:01.592',-0.430,0.420
'6:01.594',-0.450,0.430
'6:01.597',-0.445,0.420
'6:01.600',-0.450,0.420
'6:01.603',-0.450,0.445
'6:01.606',-0.450,0.485
'6:01.608',-0.440,0.485
'6:01.611',-0.445,0.470
'6:01.614',-0.480,0.485
'6:01.617',-0.475,0.485
'6:01.619',-0.470,0.510
'6:01.622',-0.445,0.540
'6:01.625',-0.440,0.535
'6:01.628',-0.460,0.560
'6:01.631',-0.475,0.525
'6:01.633',-0.500,0.555
'6:01.636',-0.495,0.590
'6:01.639',-0.485,0.615
'6:01.642',-0.460,0.620
'6:01.644',-0.470,0.620
'6:01.647',-0.485,0.610
'6:01.650',-0.520,0.620
'6:01.653',-0.520,0.675
'6:01.656',-0.510,0.695
'6:01.658',-0.485,0.715
'6:01.661',-0.485,0.710
'6:01.664',-0.495,0.710
'6:01.667',-0.510,0.715
'6:01.669',-0.510,0.750
'6:01.672',-0.510,0.785
'6:01.675',-0.520,0.775
'6:01.678',-0.535,0.765
'6:01.681',-0.560,0.760
'6:01.683',-0.575,0.780
'6:01.686',-0.570,0.800
'6:01.689',-0.545,0.835
'6:01.692',-0.530,0.835
'6:01.694',-0.545,0.825
'6:01.697',-0.560,0.830
'6:01.700',-0.585,0.825
'6:01.703',-0.610,0.835
'6:01.706',-0.610,0.845
'6:01.708',-0.615,0.870
'6:01.711',-0.595,0.850
'6:01.714',-0.595,0.845
'6:01.717',-0.630,0.850
'6:01.719',-0.635,0.865
'6:01.722',-0.645,0.875
'6:01.725',-0.625,0.855
'6:01.728',-0.635,0.825
'6:01.731',-0.655,0.805
'6:01.733',-0.650,0.800
'6:01.736',-0.645,0.800
'6:01.739',-0.635,0.805
'6:01.742',-0.615,0.770
'6:01.744',-0.630,0.725
'6:01.747',-0.620,0.685
'6:01.750',-0.610,0.660
'6:01.753',-0.590,0.650
'6:01.756',-0.560,0.635
'6:01.758',-0.535,0.615
'6:01.761',-0.535,0.580
'6:01.764',-0.535,0.545
'6:01.767',-0.515,0.515
'6:01.769',-0.480,0.525
'6:01.772',-0.440,0.495
'6:01.775',-0.420,0.475
'6:01.778',-0.420,0.440
'6:01.781',-0.420,0.415
'6:01.783',-0.415,0.400
'6:01.786',-0.375,0.360
'6:01.789',-0.345,0.355
'6:01.792',-0.305,0.320
'6:01.794',-0.280,0.300
'6:01.797',-0.275,0.260
'6:01.800',-0.275,0.250
'6:01.803',-0.265,0.245
'6:01.806',-0.235,0.250
'6:01.808',-0.220,0.240
'6:01.811',-0.195,0.205
'6:01.814',-0.185,0.185
'6:01.817',-0.195,0.175
'6:01.819',-0.210,0.200
'6:01.822',-0.200,0.205
'6:01.825',-0.180,0.190
'6:01.828',-0.185,0.170
'6:01.831',-0.195,0.170
'6:01.833',-0.205,0.160
'6:01.836',-0.185,0.190
'6:01.839',-0.180,0.195
'6:01.842',-0.185,0.200
'6:01.844',-0.195,0.175
'6:01.847',-0.210,0.155
'6:01.850',-0.235,0.160
'6:01.853',-0.235,0.170
'6:01.856',-0.225,0.220
'6:01.858',-0.210,0.205
'6:01.861',-0.205,0.195
'6:01.864',-0.215,0.180
'6:01.867',-0.230,0.170
'6:01.869',-0.225,0.175
'6:01.872',-0.200,0.180
'6:01.875',-0.185,0.175
'6:01.878',-0.185,0.160
'6:01.881',-0.210,0.165
'6:01.883',-0.225,0.175
'6:01.886',-0.210,0.180
'6:01.889',-0.205,0.210
'6:01.892',-0.215,0.205
'6:01.894',-0.225,0.195
'6:01.897',-0.245,0.185
'6:01.900',-0.245,0.185
'6:01.903',-0.250,0.195
'6:01.906',-0.240,0.220
'6:01.908',-0.225,0.235
'6:01.911',-0.230,0.240
'6:01.914',-0.260,0.200
'6:01.917',-0.270,0.205
'6:01.919',-0.275,0.210
'6:01.922',-0.270,0.220
'6:01.925',-0.260,0.220
'6:01.928',-0.265,0.210
'6:01.931',-0.245,0.215
'6:01.933',-0.275,0.220
'6:01.936',-0.270,0.225
'6:01.939',-0.265,0.235
'6:01.942',-0.240,0.225
'6:01.944',-0.245,0.210
'6:01.947',-0.260,0.190
'6:01.950',-0.275,0.205
'6:01.953',-0.255,0.215
'6:01.956',-0.240,0.225
'6:01.958',-0.230,0.225
'6:01.961',-0.240,0.210
'6:01.964',-0.260,0.195
'6:01.967',-0.275,0.210
'6:01.969',-0.275,0.205
'6:01.972',-0.245,0.225
'6:01.975',-0.245,0.225
'6:01.978',-0.250,0.215
'6:01.981',-0.285,0.190
'6:01.983',-0.285,0.190
'6:01.986',-0.270,0.205
'6:01.989',-0.235,0.220
'6:01.992',-0.220,0.210
'6:01.994',-0.220,0.195
'6:01.997',-0.215,0.180
'6:02.000',-0.235,0.180
'6:02.003',-0.240,0.190
'6:02.006',-0.245,0.210
'6:02.008',-0.225,0.190
'6:02.011',-0.225,0.180
'6:02.014',-0.240,0.175
'6:02.017',-0.275,0.170
'6:02.019',-0.255,0.180
'6:02.022',-0.245,0.190
'6:02.025',-0.235,0.180
'6:02.028',-0.255,0.175
'6:02.031',-0.275,0.160
'6:02.033',-0.270,0.170
'6:02.036',-0.270,0.175
'6:02.039',-0.240,0.180
'6:02.042',-0.220,0.170
'6:02.044',-0.225,0.160
'6:02.047',-0.245,0.150
'6:02.050',-0.250,0.150
'6:02.053',-0.225,0.160
'6:02.056',-0.200,0.185
'6:02.058',-0.190,0.175
'6:02.061',-0.185,0.170
'6:02.064',-0.170,0.155
'6:02.067',-0.185,0.155
'6:02.069',-0.185,0.165
'6:02.072',-0.185,0.180
'6:02.075',-0.180,0.175
'6:02.078',-0.185,0.170
'6:02.081',-0.180,0.155
'6:02.083',-0.185,0.165
'6:02.086',-0.180,0.190
'6:02.089',-0.170,0.200
'6:02.092',-0.160,0.185
'6:02.094',-0.195,0.165
'6:02.097',-0.210,0.130
'6:02.100',-0.215,0.115
'6:02.103',-0.200,0.115
'6:02.106',-0.175,0.125
'6:02.108',-0.160,0.145
'6:02.111',-0.155,0.130
'6:02.114',-0.160,0.120
'6:02.117',-0.180,0.110
'6:02.119',-0.195,0.125
'6:02.122',-0.185,0.140
'6:02.125',-0.175,0.140
'6:02.128',-0.190,0.115
'6:02.131',-0.190,0.105
'6:02.133',-0.210,0.110
'6:02.136',-0.220,0.115
'6:02.139',-0.225,0.120
'6:02.142',-0.230,0.100
'6:02.144',-0.245,0.100
'6:02.147',-0.260,0.085
'6:02.150',-0.280,0.075
'6:02.153',-0.265,0.095
'6:02.156',-0.255,0.110
'6:02.158',-0.245,0.095
'6:02.161',-0.245,0.080
'6:02.164',-0.255,0.065
'6:02.167',-0.255,0.055
'6:02.169',-0.275,0.085
'6:02.172',-0.255,0.115
'6:02.175',-0.240,0.115
'6:02.178',-0.245,0.100
'6:02.181',-0.255,0.085
'6:02.183',-0.245,0.090
'6:02.186',-0.235,0.110
'6:02.189',-0.225,0.115
'6:02.192',-0.225,0.105
'6:02.194',-0.225,0.095
'6:02.197',-0.245,0.075
'6:02.200',-0.245,0.080
'6:02.203',-0.240,0.105
'6:02.206',-0.215,0.130
'6:02.208',-0.205,0.150
'6:02.211',-0.200,0.155
'6:02.214',-0.220,0.150
'6:02.217',-0.250,0.160
'6:02.219',-0.215,0.135
'6:02.222',-0.155,0.095
'6:02.225',-0.055,0.010
'6:02.228',0.060,-0.085
'6:02.231',0.150,-0.180
'6:02.233',0.230,-0.265
'6:02.236',0.315,-0.355
'6:02.239',0.405,-0.465
'6:02.242',0.475,-0.570
'6:02.244',0.555,-0.690
'6:02.247',0.660,-0.795
'6:02.250',0.780,-0.870
'6:02.253',0.935,-0.930
'6:02.256',1.140,-0.965
'6:02.258',1.315,-1.000
'6:02.261',1.480,-1.040
'6:02.264',1.600,-1.085
'6:02.267',1.660,-1.120
'6:02.269',1.680,-1.125
'6:02.272',1.620,-1.110
'6:02.275',1.525,-1.100
'6:02.278',1.320,-1.110
'6:02.281',1.065,-1.130
'6:02.283',0.785,-1.100
'6:02.286',0.565,-1.070
'6:02.289',0.410,-1.000
'6:02.292',0.300,-0.975
'6:02.294',0.230,-0.940
'6:02.297',0.175,-0.890
'6:02.300',0.165,-0.820
'6:02.303',0.195,-0.710
'6:02.306',0.240,-0.605
'6:02.308',0.270,-0.500
'6:02.311',0.260,-0.440
'6:02.314',0.225,-0.405
'6:02.317',0.175,-0.360
'6:02.319',0.150,-0.280
'6:02.322',0.125,-0.220
'6:02.325',0.095,-0.190
'6:02.328',0.065,-0.135
'6:02.331',0.035,-0.100
'6:02.333',-0.005,-0.045
'6:02.336',-0.025,0.005
'6:02.339',-0.055,0.075
'6:02.342',-0.100,0.100
'6:02.344',-0.135,0.135
'6:02.347',-0.180,0.155
'6:02.350',-0.225,0.180
'6:02.353',-0.240,0.230
'6:02.356',-0.235,0.255
'6:02.358',-0.235,0.290
'6:02.361',-0.265,0.315
'6:02.364',-0.305,0.320
'6:02.367',-0.335,0.340
'6:02.369',-0.350,0.345
'6:02.372',-0.360,0.390
'6:02.375',-0.350,0.390
'6:02.378',-0.365,0.395
'6:02.381',-0.380,0.390
'6:02.383',-0.415,0.400
'6:02.386',-0.425,0.420
'6:02.389',-0.400,0.460
'6:02.392',-0.405,0.465
'6:02.394',-0.390,0.445
'6:02.397',-0.395,0.440
'6:02.400',-0.415,0.435
'6:02.403',-0.405,0.470
'6:02.406',-0.390,0.460
'6:02.408',-0.370,0.480
'6:02.411',-0.370,0.470
'6:02.414',-0.400,0.460
'6:02.417',-0.390,0.485
'6:02.419',-0.385,0.520
'6:02.422',-0.380,0.530
'6:02.425',-0.400,0.530
'6:02.428',-0.405,0.520
'6:02.431',-0.430,0.520
'6:02.433',-0.445,0.520
'6:02.436',-0.435,0.545
'6:02.439',-0.425,0.580
'6:02.442',-0.415,0.590
'6:02.444',-0.435,0.595
'6:02.447',-0.440,0.590
'6:02.450',-0.440,0.600
'6:02.453',-0.435,0.635
'6:02.456',-0.425,0.655
'6:02.458',-0.415,0.670
'6:02.461',-0.430,0.665
'6:02.464',-0.440,0.685
'6:02.467',-0.460,0.680
'6:02.469',-0.455,0.715
'6:02.472',-0.435,0.745
'6:02.475',-0.415,0.750
'6:02.478',-0.420,0.755
'6:02.481',-0.450,0.755
'6:02.483',-0.470,0.770
'6:02.486',-0.475,0.790
'6:02.489',-0.475,0.810
'6:02.492',-0.470,0.820
'6:02.494',-0.470,0.795
'6:02.497',-0.480,0.805
'6:02.500',-0.485,0.815
'6:02.503',-0.480,0.840
'6:02.506',-0.475,0.865
'6:02.508',-0.470,0.890
'6:02.511',-0.495,0.880
'6:02.514',-0.520,0.880
'6:02.517',-0.535,0.880
'6:02.519',-0.545,0.895
'6:02.522',-0.535,0.920
'6:02.525',-0.505,0.920
'6:02.528',-0.520,0.905
'6:02.531',-0.530,0.920
'6:02.533',-0.565,0.925
'6:02.536',-0.570,0.910
'6:02.539',-0.560,0.920
'6:02.542',-0.560,0.920
'6:02.544',-0.555,0.890
'6:02.547',-0.560,0.870
'6:02.550',-0.565,0.855
'6:02.553',-0.565,0.850
'6:02.556',-0.560,0.865
'6:02.558',-0.530,0.855
'6:02.561',-0.540,0.825
'6:02.564',-0.570,0.775
'6:02.567',-0.570,0.785
'6:02.569',-0.550,0.760
'6:02.572',-0.530,0.735
'6:02.575',-0.505,0.710
'6:02.578',-0.500,0.665
'6:02.581',-0.495,0.625
'6:02.583',-0.490,0.600
'6:02.586',-0.475,0.575
'6:02.589',-0.445,0.560
'6:02.592',-0.430,0.525
'6:02.594',-0.415,0.470
'6:02.597',-0.420,0.430
'6:02.600',-0.390,0.400
'6:02.603',-0.355,0.400
'6:02.606',-0.330,0.385
'6:02.608',-0.310,0.360
'6:02.611',-0.285,0.330
'6:02.614',-0.305,0.285
'6:02.617',-0.300,0.260
'6:02.619',-0.275,0.235
'6:02.622',-0.250,0.225
'6:02.625',-0.215,0.220
'6:02.628',-0.230,0.195
'6:02.631',-0.205,0.160
'6:02.633',-0.210,0.150
'6:02.636',-0.200,0.155
'6:02.639',-0.185,0.170
'6:02.642',-0.170,0.150
'6:02.644',-0.170,0.125
'6:02.647',-0.170,0.105
'6:02.650',-0.175,0.090
'6:02.653',-0.175,0.100
'6:02.656',-0.170,0.125
'6:02.658',-0.160,0.125
'6:02.661',-0.155,0.095
'6:02.664',-0.165,0.095
'6:02.667',-0.180,0.085
'6:02.669',-0.185,0.090
'6:02.672',-0.160,0.095
'6:02.675',-0.145,0.095
'6:02.678',-0.160,0.070
'6:02.681',-0.175,0.030
'6:02.683',-0.190,0.040
'6:02.686',-0.185,0.055
'6:02.689',-0.165,0.070
'6:02.692',-0.140,0.070
'6:02.694',-0.150,0.050
'6:02.697',-0.170,0.020
'6:02.700',-0.190,0.040
'6:02.703',-0.175,0.035
'6:02.706',-0.165,0.055
'6:02.708',-0.155,0.050
'6:02.711',-0.150,0.020
'6:02.714',-0.170,0.025
'6:02.717',-0.165,0.040
'6:02.719',-0.155,0.065
'6:02.722',-0.140,0.080
'6:02.725',-0.145,0.075
'6:02.728',-0.170,0.050
'6:02.731',-0.195,0.030
'6:02.733',-0.210,0.050
'6:02.736',-0.195,0.055
'6:02.739',-0.165,0.080
'6:02.742',-0.140,0.085
'6:02.744',-0.155,0.065
'6:02.747',-0.200,0.050
'6:02.750',-0.205,0.060
'6:02.753',-0.190,0.070
'6:02.756',-0.160,0.085
'6:02.758',-0.155,0.090
'6:02.761',-0.160,0.065
'6:02.764',-0.180,0.060
'6:02.767',-0.205,0.060
'6:02.769',-0.205,0.075
'6:02.772',-0.195,0.100
'6:02.775',-0.160,0.085
'6:02.778',-0.160,0.075
'6:02.781',-0.155,0.075
'6:02.783',-0.180,0.065
'6:02.786',-0.170,0.080
'6:02.789',-0.175,0.100
'6:02.792',-0.175,0.085
'6:02.794',-0.200,0.070
'6:02.797',-0.220,0.055
'6:02.800',-0.205,0.045
'6:02.803',-0.185,0.075
'6:02.806',-0.160,0.085
'6:02.808',-0.175,0.095
'6:02.811',-0.180,0.080
'6:02.814',-0.200,0.050
'6:02.817',-0.210,0.070
'6:02.819',-0.195,0.070
'6:02.822',-0.160,0.095
'6:02.825',-0.145,0.090
'6:02.828',-0.150,0.080
'6:02.831',-0.170,0.050
'6:02.833',-0.165,0.050
'6:02.836',-0.170,0.070
'6:02.839',-0.170,0.090
'6:02.842',-0.145,0.080
'6:02.844',-0.155,0.085
'6:02.847',-0.175,0.070
'6:02.850',-0.195,0.065
'6:02.853',-0.180,0.075
'6:02.856',-0.185,0.085
'6:02.858',-0.170,0.080
'6:02.861',-0.165,0.050
'6:02.864',-0.180,0.040
'6:02.867',-0.180,0.045
'6:02.869',-0.150,0.050
'6:02.872',-0.125,0.075
'6:02.875',-0.100,0.075
'6:02.878',-0.100,0.055
'6:02.881',-0.105,0.040
'6:02.883',-0.120,0.055
'6:02.886',-0.100,0.060
'6:02.889',-0.085,0.080
'6:02.892',-0.075,0.080
'6:02.894',-0.095,0.065
'6:02.897',-0.115,0.050
'6:02.900',-0.115,0.055
'6:02.903',-0.115,0.055
'6:02.906',-0.080,0.080
'6:02.908',-0.060,0.080
'6:02.911',-0.030,0.075
'6:02.914',-0.060,0.035
'6:02.917',-0.075,0.035
'6:02.919',-0.090,0.045
'6:02.922',-0.100,0.065
'6:02.925',-0.090,0.055
'6:02.928',-0.085,0.040
'6:02.931',-0.075,0.025
'6:02.933',-0.085,0.045
'6:02.936',-0.090,0.050
'6:02.939',-0.090,0.070
'6:02.942',-0.090,0.050
'6:02.944',-0.115,0.050
'6:02.947',-0.130,0.020
'6:02.950',-0.155,0.040
'6:02.953',-0.135,0.015
'6:02.956',-0.135,0.055
'6:02.958',-0.140,0.045
'6:02.961',-0.170,0.010
'6:02.964',-0.175,0.015
'6:02.967',-0.190,0.005
'6:02.969',-0.175,0.015
'6:02.972',-0.160,0.030
'6:02.975',-0.150,0.035
'6:02.978',-0.165,0.025
'6:02.981',-0.190,0.025
'6:02.983',-0.220,0.025
'6:02.986',-0.230,0.025
'6:02.989',-0.210,0.055
'6:02.992',-0.170,0.045
'6:02.994',-0.145,0.015
'6:02.997',-0.170,0.010
'6:03.000',-0.185,0.015
'6:03.003',-0.195,0.030
'6:03.006',-0.185,0.060
'6:03.008',-0.170,0.060
'6:03.011',-0.175,0.050
'6:03.014',-0.185,0.030
'6:03.017',-0.185,0.015
'6:03.019',-0.175,0.040
'6:03.022',-0.155,0.040
'6:03.025',-0.160,0.065
'6:03.028',-0.165,0.085
'6:03.031',-0.185,0.085
'6:03.033',-0.185,0.105
'6:03.036',-0.175,0.100
'6:03.039',-0.135,0.080
'6:03.042',-0.070,0.010
'6:03.044',0.020,-0.065
'6:03.047',0.120,-0.185
'6:03.050',0.195,-0.285
'6:03.053',0.280,-0.395
'6:03.056',0.355,-0.475
'6:03.058',0.455,-0.580
'6:03.061',0.565,-0.705
'6:03.064',0.680,-0.800
'6:03.067',0.800,-0.880
'6:03.069',0.960,-0.945
'6:03.072',1.140,-0.975
'6:03.075',1.345,-1.005
'6:03.078',1.560,-1.050
'6:03.081',1.745,-1.070
'6:03.083',1.855,-1.075
'6:03.086',1.890,-1.050
'6:03.089',1.880,-1.045
'6:03.092',1.770,-1.055
'6:03.094',1.560,-1.070
'6:03.097',1.220,-1.090
'6:03.100',0.880,-1.090
'6:03.103',0.625,-1.040
'6:03.106',0.465,-0.985
'6:03.108',0.380,-0.915
'6:03.111',0.290,-0.870
'6:03.114',0.220,-0.835
'6:03.117',0.215,-0.725
'6:03.119',0.240,-0.645
'6:03.122',0.265,-0.545
'6:03.125',0.270,-0.460
'6:03.128',0.245,-0.410
'6:03.131',0.205,-0.365
'6:03.133',0.135,-0.310
'6:03.136',0.095,-0.240
'6:03.139',0.050,-0.180
'6:03.142',0.035,-0.130
'6:03.144',0.025,-0.095
'6:03.147',-0.020,-0.070
'6:03.150',-0.055,-0.010
'6:03.153',-0.095,0.045
'6:03.156',-0.120,0.105
'6:03.158',-0.140,0.140
'6:03.161',-0.175,0.175
'6:03.164',-0.195,0.180
'6:03.167',-0.225,0.210
'6:03.169',-0.250,0.250
'6:03.172',-0.280,0.280
'6:03.175',-0.280,0.300
'6:03.178',-0.300,0.300
'6:03.181',-0.320,0.300
'6:03.183',-0.355,0.315
'6:03.186',-0.360,0.350
'6:03.189',-0.345,0.375
'6:03.192',-0.320,0.375
'6:03.194',-0.340,0.375
'6:03.197',-0.360,0.365
'6:03.200',-0.355,0.375
'6:03.203',-0.370,0.385
'6:03.206',-0.360,0.415
'6:03.208',-0.350,0.425
'6:03.211',-0.350,0.420
'6:03.214',-0.355,0.430
'6:03.217',-0.370,0.430
'6:03.219',-0.385,0.455
'6:03.222',-0.365,0.475
'6:03.225',-0.345,0.475
'6:03.228',-0.365,0.475
'6:03.231',-0.375,0.480
'6:03.233',-0.385,0.495
'6:03.236',-0.395,0.530
'6:03.239',-0.375,0.545
'6:03.242',-0.380,0.540
'6:03.244',-0.395,0.545
'6:03.247',-0.405,0.545
'6:03.250',-0.405,0.555
'6:03.253',-0.410,0.590
'6:03.256',-0.380,0.600
'6:03.258',-0.370,0.625
'6:03.261',-0.380,0.630
'6:03.264',-0.395,0.645
'6:03.267',-0.420,0.655
'6:03.269',-0.410,0.685
'6:03.272',-0.410,0.700
'6:03.275',-0.400,0.715
'6:03.278',-0.410,0.735
'6:03.281',-0.430,0.715
'6:03.283',-0.450,0.730
'6:03.286',-0.460,0.765
'6:03.289',-0.455,0.800
'6:03.292',-0.440,0.810
'6:03.294',-0.445,0.805
'6:03.297',-0.470,0.795
'6:03.300',-0.480,0.815
'6:03.303',-0.480,0.840
'6:03.306',-0.470,0.870
'6:03.308',-0.455,0.860
'6:03.311',-0.480,0.870
'6:03.314',-0.490,0.855
'6:03.317',-0.505,0.865
'6:03.319',-0.520,0.875
'6:03.322',-0.515,0.885
'6:03.325',-0.495,0.900
'6:03.328',-0.495,0.880
'6:03.331',-0.525,0.865
'6:03.333',-0.545,0.875
'6:03.336',-0.535,0.885
'6:03.339',-0.550,0.890
'6:03.342',-0.525,0.870
'6:03.344',-0.530,0.850
'6:03.347',-0.530,0.815
'6:03.350',-0.540,0.805
'6:03.353',-0.525,0.790
'6:03.356',-0.510,0.795
'6:03.358',-0.490,0.770
'6:03.361',-0.490,0.735
'6:03.364',-0.505,0.675
'6:03.367',-0.495,0.670
'6:03.369',-0.480,0.660
'6:03.372',-0.445,0.640
'6:03.375',-0.430,0.615
'6:03.378',-0.425,0.580
'6:03.381',-0.420,0.535
'6:03.383',-0.425,0.510
'6:03.386',-0.405,0.490
'6:03.389',-0.365,0.485
'6:03.392',-0.335,0.430
'6:03.394',-0.310,0.405
'6:03.397',-0.300,0.355
'6:03.400',-0.285,0.315
'6:03.403',-0.265,0.300
'6:03.406',-0.240,0.300
'6:03.408',-0.210,0.275
'6:03.411',-0.210,0.255
'6:03.414',-0.195,0.220
'6:03.417',-0.175,0.205
'6:03.419',-0.160,0.200
'6:03.422',-0.140,0.210
'6:03.425',-0.135,0.185
'6:03.428',-0.135,0.170
'6:03.431',-0.150,0.135
'6:03.433',-0.160,0.130
'6:03.436',-0.135,0.135
'6:03.439',-0.115,0.140
'6:03.442',-0.105,0.140
'6:03.444',-0.115,0.120
'6:03.447',-0.115,0.105
'6:03.450',-0.140,0.090
'6:03.453',-0.140,0.090
'6:03.456',-0.130,0.110
'6:03.458',-0.130,0.110
'6:03.461',-0.120,0.095
'6:03.464',-0.120,0.085
'6:03.467',-0.125,0.085
'6:03.469',-0.125,0.100
'6:03.472',-0.120,0.115
'6:03.475',-0.105,0.105
'6:03.478',-0.125,0.100
'6:03.481',-0.130,0.065
'6:03.483',-0.130,0.075
'6:03.486',-0.125,0.115
'6:03.489',-0.110,0.115
'6:03.492',-0.105,0.110
'6:03.494',-0.125,0.100
'6:03.497',-0.145,0.070
'6:03.500',-0.150,0.070
'6:03.503',-0.155,0.090
'6:03.506',-0.140,0.095
'6:03.508',-0.135,0.100
'6:03.511',-0.110,0.095
'6:03.514',-0.125,0.090
'6:03.517',-0.140,0.075
'6:03.519',-0.135,0.110
'6:03.522',-0.145,0.125
'6:03.525',-0.130,0.105
'6:03.528',-0.130,0.095
'6:03.531',-0.150,0.100
'6:03.533',-0.145,0.080
'6:03.536',-0.135,0.110
'6:03.539',-0.130,0.115
'6:03.542',-0.140,0.120
'6:03.544',-0.140,0.105
'6:03.547',-0.145,0.100
'6:03.550',-0.155,0.110
'6:03.553',-0.135,0.125
'6:03.556',-0.135,0.145
'6:03.558',-0.120,0.130
'6:03.561',-0.135,0.110
'6:03.564',-0.170,0.090
'6:03.567',-0.175,0.105
'6:03.569',-0.160,0.120
'6:03.572',-0.145,0.135
'6:03.575',-0.130,0.120
'6:03.578',-0.140,0.105
'6:03.581',-0.150,0.095
'6:03.583',-0.165,0.095
'6:03.586',-0.150,0.115
'6:03.589',-0.125,0.125
'6:03.592',-0.115,0.130
'6:03.594',-0.125,0.115
'6:03.597',-0.140,0.090
'6:03.600',-0.145,0.090
'6:03.603',-0.140,0.100
'6:03.606',-0.135,0.110
'6:03.608',-0.130,0.105
'6:03.611',-0.140,0.105
'6:03.614',-0.150,0.090
'6:03.617',-0.145,0.095
'6:03.619',-0.135,0.110
'6:03.622',-0.120,0.120
'6:03.625',-0.110,0.100
'6:03.628',-0.100,0.105
'6:03.631',-0.125,0.090
'6:03.633',-0.130,0.085
'6:03.636',-0.125,0.105
'6:03.639',-0.115,0.110
'6:03.642',-0.110,0.105
'6:03.644',-0.110,0.105
'6:03.647',-0.115,0.085
'6:03.650',-0.145,0.080
'6:03.653',-0.130,0.080
'6:03.656',-0.130,0.105
'6:03.658',-0.110,0.095
'6:03.661',-0.110,0.085
'6:03.664',-0.110,0.065
'6:03.667',-0.115,0.070
'6:03.669',-0.100,0.070
'6:03.672',-0.075,0.085
'6:03.675',-0.045,0.085
'6:03.678',-0.045,0.070
'6:03.681',-0.050,0.050
'6:03.683',-0.075,0.070
'6:03.686',-0.065,0.080
'6:03.689',-0.055,0.100
'6:03.692',-0.050,0.085
'6:03.694',-0.040,0.090
'6:03.697',-0.040,0.065
'6:03.700',-0.050,0.065
'6:03.703',-0.055,0.080
'6:03.706',-0.030,0.080
'6:03.708',-0.020,0.075
'6:03.711',-0.030,0.060
'6:03.714',-0.035,0.040
'6:03.717',-0.060,0.035
'6:03.719',-0.060,0.045
'6:03.722',-0.060,0.060
'6:03.725',-0.025,0.045
'6:03.728',-0.035,0.040
'6:03.731',-0.040,0.015
'6:03.733',-0.045,0.020
'6:03.736',-0.050,0.035
'6:03.739',-0.055,0.060
'6:03.742',-0.060,0.055
'6:03.744',-0.075,0.045
'6:03.747',-0.065,0.035
'6:03.750',-0.090,0.035
'6:03.753',-0.095,0.035
'6:03.756',-0.080,0.035
'6:03.758',-0.095,0.045
'6:03.761',-0.115,0.025
'6:03.764',-0.120,0.005
'6:03.767',-0.125,0.005
'6:03.769',-0.120,0.010
'6:03.772',-0.100,0.035
'6:03.775',-0.095,0.020
'6:03.778',-0.095,0.015
'6:03.781',-0.125,0.020
'6:03.783',-0.145,0.015
'6:03.786',-0.130,0.050
'6:03.789',-0.120,0.040
'6:03.792',-0.115,0.035
'6:03.794',-0.110,0.025
'6:03.797',-0.130,0.010
'6:03.800',-0.135,0.020
'6:03.803',-0.120,0.020
'6:03.806',-0.120,0.050
'6:03.808',-0.100,0.035
'6:03.811',-0.105,0.025
'6:03.814',-0.110,0.010
'6:03.817',-0.115,0.015
'6:03.819',-0.120,0.015
'6:03.822',-0.120,0.040
'6:03.825',-0.115,0.035
'6:03.828',-0.100,0.050
'6:03.831',-0.105,0.045
'6:03.833',-0.115,0.080
'6:03.836',-0.110,0.080
'6:03.839',-0.085,0.060
'6:03.842',-0.050,-0.005
'6:03.844',0.025,-0.100
'6:03.847',0.105,-0.205
'6:03.850',0.200,-0.325
'6:03.853',0.310,-0.400
'6:03.856',0.390,-0.495
'6:03.858',0.490,-0.610
'6:03.861',0.535,-0.725
'6:03.864',0.575,-0.830
'6:03.867',0.675,-0.935
'6:03.869',0.795,-1.010
'6:03.872',0.960,-1.085
'6:03.875',1.155,-1.125
'6:03.878',1.340,-1.180
'6:03.881',1.500,-1.205
'6:03.883',1.665,-1.205
'6:03.886',1.820,-1.180
'6:03.889',1.910,-1.155
'6:03.892',1.960,-1.145
'6:03.894',1.925,-1.160
'6:03.897',1.785,-1.165
'6:03.900',1.570,-1.180
'6:03.903',1.310,-1.160
'6:03.906',1.075,-1.120
'6:03.908',0.905,-1.070
'6:03.911',0.745,-1.040
'6:03.914',0.605,-1.000
'6:03.917',0.525,-0.960
'6:03.919',0.445,-0.865
'6:03.922',0.430,-0.785
'6:03.925',0.430,-0.700
'6:03.928',0.410,-0.635
'6:03.931',0.380,-0.575
'6:03.933',0.365,-0.510
'6:03.936',0.340,-0.445
'6:03.939',0.305,-0.365
'6:03.942',0.280,-0.320
'6:03.944',0.240,-0.285
'6:03.947',0.170,-0.255
'6:03.950',0.120,-0.195
'6:03.953',0.090,-0.140
'6:03.956',0.075,-0.080
'6:03.958',0.055,-0.050
'6:03.961',0.000,-0.020
'6:03.964',-0.040,0.010
'6:03.967',-0.060,0.055
'6:03.969',-0.080,0.110
'6:03.972',-0.105,0.160
'6:03.975',-0.115,0.190
'6:03.978',-0.140,0.205
'6:03.981',-0.195,0.210
'6:03.983',-0.235,0.250
'6:03.986',-0.255,0.285
'6:03.989',-0.260,0.300
'6:03.992',-0.235,0.305
'6:03.994',-0.260,0.320
'6:03.997',-0.275,0.295
'6:04.000',-0.295,0.320
'6:04.003',-0.305,0.335
'6:04.006',-0.310,0.365
'6:04.008',-0.290,0.370
'6:04.011',-0.305,0.365
'6:04.014',-0.325,0.350
'6:04.017',-0.335,0.380
'6:04.019',-0.325,0.390
'6:04.022',-0.310,0.410
'6:04.025',-0.295,0.400
'6:04.028',-0.290,0.410
'6:04.031',-0.315,0.400
'6:04.033',-0.315,0.410
'6:04.036',-0.315,0.440
'6:04.039',-0.310,0.465
'6:04.042',-0.305,0.470
'6:04.044',-0.315,0.465
'6:04.047',-0.340,0.455
'6:04.050',-0.350,0.455
'6:04.053',-0.365,0.495
'6:04.056',-0.345,0.515
'6:04.058',-0.340,0.530
'6:04.061',-0.340,0.525
'6:04.064',-0.365,0.525
'6:04.067',-0.365,0.540
'6:04.069',-0.365,0.570
'6:04.072',-0.340,0.600
'6:04.075',-0.340,0.610
'6:04.078',-0.365,0.605
'6:04.081',-0.365,0.590
'6:04.083',-0.380,0.610
'6:04.086',-0.385,0.650
'6:04.089',-0.360,0.675
'6:04.092',-0.350,0.685
'6:04.094',-0.350,0.690
'6:04.097',-0.375,0.680
'6:04.100',-0.390,0.690
'6:04.103',-0.410,0.730
'6:04.106',-0.395,0.755
'6:04.108',-0.385,0.770
'6:04.111',-0.395,0.765
'6:04.114',-0.410,0.760
'6:04.117',-0.410,0.775
'6:04.119',-0.430,0.805
'6:04.122',-0.415,0.830
'6:04.125',-0.410,0.840
'6:04.128',-0.425,0.830
'6:04.131',-0.445,0.825
'6:04.133',-0.470,0.835
'6:04.136',-0.460,0.855
'6:04.139',-0.445,0.865
'6:04.142',-0.455,0.865
'6:04.144',-0.470,0.835
'6:04.147',-0.485,0.835
'6:04.150',-0.495,0.820
'6:04.153',-0.500,0.840
'6:04.156',-0.495,0.845
'6:04.158',-0.480,0.825
'6:04.161',-0.480,0.805
'6:04.164',-0.500,0.770
'6:04.167',-0.500,0.750
'6:04.169',-0.500,0.760
'6:04.172',-0.480,0.750
'6:04.175',-0.470,0.715
'6:04.178',-0.450,0.680
'6:04.181',-0.445,0.640
'6:04.183',-0.435,0.615
'6:04.186',-0.405,0.600
'6:04.189',-0.385,0.575
'6:04.192',-0.360,0.535
'6:04.194',-0.355,0.500
'6:04.197',-0.340,0.445
'6:04.200',-0.345,0.430
'6:04.203',-0.310,0.405
'6:04.206',-0.280,0.400
'6:04.208',-0.255,0.360
'6:04.211',-0.250,0.315
'6:04.214',-0.240,0.290
'6:04.217',-0.245,0.265
'6:04.219',-0.210,0.255
'6:04.222',-0.185,0.235
'6:04.225',-0.160,0.210
'6:04.228',-0.150,0.180
'6:04.231',-0.135,0.150
'6:04.233',-0.125,0.140
'6:04.236',-0.115,0.130
'6:04.239',-0.100,0.115
'6:04.242',-0.085,0.110
'6:04.244',-0.090,0.090
'6:04.247',-0.095,0.060
'6:04.250',-0.110,0.055
'6:04.253',-0.100,0.070
'6:04.256',-0.070,0.065
'6:04.258',-0.075,0.060
'6:04.261',-0.080,0.020
'6:04.264',-0.095,0.015
'6:04.267',-0.100,0.015
'6:04.269',-0.085,0.030
'6:04.272',-0.065,0.040
'6:04.275',-0.050,0.040
'6:04.278',-0.065,0.015
'6:04.281',-0.075,0.010
'6:04.283',-0.090,0.020
'6:04.286',-0.095,0.025
'6:04.289',-0.075,0.035
'6:04.292',-0.055,0.010
'6:04.294',-0.085,0.010
'6:04.297',-0.080,0.000
'6:04.300',-0.085,0.005
'6:04.303',-0.080,0.030
'6:04.306',-0.085,0.035
'6:04.308',-0.085,0.035
'6:04.311',-0.085,0.015
'6:04.314',-0.110,0.000
'6:04.317',-0.110,-0.015
'6:04.319',-0.110,0.005
'6:04.322',-0.080,0.020
'6:04.325',-0.075,0.045
'6:04.328',-0.085,0.010
'6:04.331',-0.105,0.000
'6:04.333',-0.120,0.025
'6:04.336',-0.110,0.025
'6:04.339',-0.080,0.035
'6:04.342',-0.050,0.040
'6:04.344',-0.055,0.015
'6:04.347',-0.065,0.010
'6:04.350',-0.090,0.005
'6:04.353',-0.115,0.020
'6:04.356',-0.105,0.030
'6:04.358',-0.115,0.035
'6:04.361',-0.110,0.030
'6:04.364',-0.115,0.015
'6:04.367',-0.120,0.005
'6:04.369',-0.110,0.030
'6:04.372',-0.110,0.030
'6:04.375',-0.115,0.020
'6:04.378',-0.120,0.020
'6:04.381',-0.115,0.005
'6:04.383',-0.125,0.005
'6:04.386',-0.110,0.030
'6:04.389',-0.110,0.045
'6:04.392',-0.100,0.025
'6:04.394',-0.130,0.015
'6:04.397',-0.145,-0.010
'6:04.400',-0.155,0.005
'6:04.403',-0.140,0.015
'6:04.406',-0.110,0.025
'6:04.408',-0.105,0.020
'6:04.411',-0.095,0.000
'6:04.414',-0.130,-0.015
'6:04.417',-0.135,-0.020
'6:04.419',-0.135,-0.010
'6:04.422',-0.115,0.015
'6:04.425',-0.085,0.015
'6:04.428',-0.085,0.010
'6:04.431',-0.110,-0.030
'6:04.433',-0.120,-0.005
'6:04.436',-0.125,-0.005
'6:04.439',-0.105,0.005
'6:04.442',-0.105,-0.005
'6:04.444',-0.100,-0.010
'6:04.447',-0.105,-0.025
'6:04.450',-0.105,-0.020
'6:04.453',-0.120,-0.005
'6:04.456',-0.120,0.010
'6:04.458',-0.125,0.000
'6:04.461',-0.115,-0.010
'6:04.464',-0.110,-0.045
'6:04.467',-0.110,-0.035
'6:04.469',-0.110,-0.020
'6:04.472',-0.090,-0.020
'6:04.475',-0.085,-0.020
'6:04.478',-0.095,-0.020
'6:04.481',-0.105,-0.050
'6:04.483',-0.100,-0.055
'6:04.486',-0.075,-0.040
'6:04.489',-0.060,-0.030
'6:04.492',-0.050,-0.020
'6:04.494',-0.050,-0.040
'6:04.497',-0.060,-0.060
'6:04.500',-0.060,-0.040
'6:04.503',-0.050,-0.040
'6:04.506',-0.015,-0.020
'6:04.508',0.000,-0.040
'6:04.511',-0.005,-0.030
'6:04.514',-0.045,-0.050
'6:04.517',-0.050,-0.055
'6:04.519',-0.035,-0.025
'6:04.522',-0.015,-0.020
'6:04.525',0.020,-0.035
'6:04.528',0.010,-0.055
'6:04.531',-0.005,-0.070
'6:04.533',-0.035,-0.080
'6:04.536',-0.040,-0.060
'6:04.539',-0.035,-0.050
'6:04.542',-0.030,-0.055
'6:04.544',-0.025,-0.060
'6:04.547',-0.015,-0.065
'6:04.550',-0.030,-0.075
'6:04.553',-0.045,-0.065
'6:04.556',-0.050,-0.060
'6:04.558',-0.035,-0.050
'6:04.561',-0.065,-0.050
'6:04.564',-0.070,-0.070
'6:04.567',-0.105,-0.075
'6:04.569',-0.105,-0.070
'6:04.572',-0.100,-0.055
'6:04.575',-0.095,-0.060
'6:04.578',-0.110,-0.085
'6:04.581',-0.130,-0.085
'6:04.583',-0.125,-0.105
'6:04.586',-0.120,-0.085
'6:04.589',-0.095,-0.080
'6:04.592',-0.070,-0.065
'6:04.594',-0.085,-0.080
'6:04.597',-0.115,-0.085
'6:04.600',-0.125,-0.095
'6:04.603',-0.110,-0.070
'6:04.606',-0.090,-0.045
'6:04.608',-0.090,-0.045
'6:04.611',-0.100,-0.055
'6:04.614',-0.120,-0.090
'6:04.617',-0.130,-0.090
'6:04.619',-0.125,-0.085
'6:04.622',-0.110,-0.075
'6:04.625',-0.090,-0.070
'6:04.628',-0.095,-0.075
'6:04.631',-0.110,-0.090
'6:04.633',-0.105,-0.075
'6:04.636',-0.105,-0.030
'6:04.639',-0.095,-0.005
'6:04.642',-0.090,0.015
'6:04.644',-0.085,0.005
'6:04.647',-0.090,-0.020
'6:04.650',-0.075,-0.050
'6:04.653',-0.025,-0.070
'6:04.656',0.065,-0.115
'6:04.658',0.170,-0.215
'6:04.661',0.265,-0.350
'6:04.664',0.340,-0.500
'6:04.667',0.410,-0.660
'6:04.669',0.500,-0.775
'6:04.672',0.590,-0.855
'6:04.675',0.710,-0.945
'6:04.678',0.820,-1.045
'6:04.681',0.980,-1.150
'6:04.683',1.145,-1.210
'6:04.686',1.345,-1.235
'6:04.689',1.530,-1.250
'6:04.692',1.730,-1.250
'6:04.694',1.860,-1.245
'6:04.697',1.925,-1.230
'6:04.700',1.930,-1.200
'6:04.703',1.880,-1.165
'6:04.706',1.760,-1.145
'6:04.708',1.565,-1.130
'6:04.711',1.235,-1.090
'6:04.714',0.925,-1.050
'6:04.717',0.670,-0.990
'6:04.719',0.550,-0.915
'6:04.722',0.500,-0.840
'6:04.725',0.485,-0.760
'6:04.728',0.470,-0.690
'6:04.731',0.450,-0.625
'6:04.733',0.440,-0.575
'6:04.736',0.430,-0.500
'6:04.739',0.405,-0.450
'6:04.742',0.360,-0.415
'6:04.744',0.315,-0.380
'6:04.747',0.260,-0.345
'6:04.750',0.210,-0.275
'6:04.753',0.170,-0.210
'6:04.756',0.160,-0.140
'6:04.758',0.130,-0.100
'6:04.761',0.075,-0.065
'6:04.764',0.005,-0.065
'6:04.767',-0.080,-0.025
'6:04.769',-0.105,0.045
'6:04.772',-0.125,0.100
'6:04.775',-0.135,0.130
'6:04.778',-0.160,0.155
'6:04.781',-0.205,0.155
'6:04.783',-0.250,0.175
'6:04.786',-0.260,0.200
'6:04.789',-0.275,0.230
'6:04.792',-0.255,0.245
'6:04.794',-0.265,0.235
'6:04.797',-0.275,0.240
'6:04.800',-0.295,0.240
'6:04.803',-0.310,0.260
'6:04.806',-0.310,0.270
'6:04.808',-0.290,0.285
'6:04.811',-0.290,0.295
'6:04.814',-0.295,0.285
'6:04.817',-0.320,0.300
'6:04.819',-0.315,0.325
'6:04.822',-0.330,0.350
'6:04.825',-0.320,0.355
'6:04.828',-0.330,0.345
'6:04.831',-0.350,0.355
'6:04.833',-0.355,0.360
'6:04.836',-0.350,0.385
'6:04.839',-0.345,0.410
'6:04.842',-0.330,0.430
'6:04.844',-0.355,0.420
'6:04.847',-0.375,0.415
'6:04.850',-0.380,0.425
'6:04.853',-0.370,0.460
'6:04.856',-0.345,0.480
'6:04.858',-0.335,0.490
'6:04.861',-0.340,0.505
'6:04.864',-0.375,0.500
'6:04.867',-0.400,0.510
'6:04.869',-0.405,0.555
'6:04.872',-0.385,0.595
'6:04.875',-0.370,0.595
'6:04.878',-0.370,0.585
'6:04.881',-0.390,0.590
'6:04.883',-0.405,0.600
'6:04.886',-0.425,0.630
'6:04.889',-0.415,0.665
'6:04.892',-0.420,0.670
'6:04.894',-0.415,0.680
'6:04.897',-0.435,0.675
'6:04.900',-0.455,0.695
'6:04.903',-0.455,0.710
'6:04.906',-0.440,0.735
'6:04.908',-0.430,0.740
'6:04.911',-0.465,0.725
'6:04.914',-0.490,0.725
'6:04.917',-0.485,0.720
'6:04.919',-0.480,0.760
'6:04.922',-0.470,0.770
'6:04.925',-0.455,0.765
'6:04.928',-0.470,0.745
'6:04.931',-0.495,0.725
'6:04.933',-0.510,0.705
'6:04.936',-0.505,0.710
'6:04.939',-0.495,0.715
'6:04.942',-0.470,0.705
'6:04.944',-0.470,0.685
'6:04.947',-0.470,0.640
'6:04.950',-0.475,0.620
'6:04.953',-0.475,0.615
'6:04.956',-0.460,0.595
'6:04.958',-0.430,0.555
'6:04.961',-0.430,0.515
'6:04.964',-0.435,0.490
'6:04.967',-0.405,0.460
'6:04.969',-0.390,0.425
'6:04.972',-0.370,0.435
'6:04.975',-0.340,0.395
'6:04.978',-0.330,0.340
'6:04.981',-0.325,0.295
'6:04.983',-0.300,0.260
'6:04.986',-0.260,0.240
'6:04.989',-0.225,0.215
'6:04.992',-0.205,0.190
'6:04.994',-0.205,0.160
'6:04.997',-0.190,0.115
'6:05.000',-0.190,0.090
'6:05.003',-0.185,0.085
'6:05.006',-0.140,0.085
'6:05.008',-0.115,0.065
'6:05.011',-0.100,0.040
'6:05.014',-0.105,0.030
'6:05.017',-0.105,0.015
'6:05.019',-0.110,0.010
'6:05.022',-0.100,0.005
'6:05.025',-0.095,-0.005
'6:05.028',-0.085,-0.030
'6:05.031',-0.085,-0.050
'6:05.033',-0.090,-0.050
'6:05.036',-0.090,-0.030
'6:05.039',-0.090,-0.025
'6:05.042',-0.065,-0.035
'6:05.044',-0.075,-0.050
'6:05.047',-0.085,-0.070
'6:05.050',-0.090,-0.065
'6:05.053',-0.080,-0.055
'6:05.056',-0.080,-0.035
'6:05.058',-0.060,-0.055
'6:05.061',-0.065,-0.055
'6:05.064',-0.100,-0.075
'6:05.067',-0.095,-0.070
'6:05.069',-0.095,-0.060
'6:05.072',-0.075,-0.045
'6:05.075',-0.045,-0.065
'6:05.078',-0.050,-0.060
'6:05.081',-0.080,-0.075
'6:05.083',-0.095,-0.080
'6:05.086',-0.090,-0.060
'6:05.089',-0.085,-0.035
'6:05.092',-0.070,-0.050
'6:05.094',-0.085,-0.050
'6:05.097',-0.080,-0.075
'6:05.100',-0.090,-0.085
'6:05.103',-0.090,-0.070
'6:05.106',-0.085,-0.055
'6:05.108',-0.085,-0.050
'6:05.111',-0.090,-0.050
'6:05.114',-0.095,-0.065
'6:05.117',-0.100,-0.065
'6:05.119',-0.095,-0.040
'6:05.122',-0.080,-0.055
'6:05.125',-0.080,-0.050
'6:05.128',-0.090,-0.060
'6:05.131',-0.115,-0.070
'6:05.133',-0.130,-0.065
'6:05.136',-0.125,-0.050
'6:05.139',-0.095,-0.025
'6:05.142',-0.075,-0.020
'6:05.144',-0.080,-0.040
'6:05.147',-0.080,-0.075
'6:05.150',-0.105,-0.070
'6:05.153',-0.105,-0.060
'6:05.156',-0.100,-0.050
'6:05.158',-0.110,-0.035
'6:05.161',-0.110,-0.035
'6:05.164',-0.110,-0.055
'6:05.167',-0.130,-0.075
'6:05.169',-0.125,-0.055
'6:05.172',-0.120,-0.040
'6:05.175',-0.110,-0.040
'6:05.178',-0.110,-0.065
'6:05.181',-0.115,-0.065
'6:05.183',-0.115,-0.075
'6:05.186',-0.110,-0.055
'6:05.189',-0.105,-0.050
'6:05.192',-0.080,-0.055
'6:05.194',-0.090,-0.060
'6:05.197',-0.095,-0.090
'6:05.200',-0.110,-0.080
'6:05.203',-0.100,-0.070
'6:05.206',-0.085,-0.050
'6:05.208',-0.080,-0.045
'6:05.211',-0.090,-0.055
'6:05.214',-0.110,-0.080
'6:05.217',-0.125,-0.075
'6:05.219',-0.120,-0.070
'6:05.222',-0.095,-0.065
'6:05.225',-0.090,-0.060
'6:05.228',-0.105,-0.075
'6:05.231',-0.110,-0.090
'6:05.233',-0.125,-0.085
'6:05.236',-0.125,-0.075
'6:05.239',-0.095,-0.065
'6:05.242',-0.095,-0.060
'6:05.244',-0.100,-0.095
'6:05.247',-0.115,-0.095
'6:05.250',-0.110,-0.090
'6:05.253',-0.120,-0.065
'6:05.256',-0.095,-0.055
'6:05.258',-0.105,-0.065
'6:05.261',-0.090,-0.090
'6:05.264',-0.105,-0.105
'6:05.267',-0.105,-0.100
'6:05.269',-0.110,-0.080
'6:05.272',-0.100,-0.060
'6:05.275',-0.085,-0.075
'6:05.278',-0.070,-0.080
'6:05.281',-0.080,-0.115
'6:05.283',-0.085,-0.110
'6:05.286',-0.065,-0.100
'6:05.289',-0.050,-0.085
'6:05.292',-0.035,-0.090
'6:05.294',-0.065,-0.095
'6:05.297',-0.055,-0.105
'6:05.300',-0.055,-0.105
'6:05.303',-0.040,-0.070
'6:05.306',-0.030,-0.070
'6:05.308',-0.015,-0.065
'6:05.311',-0.025,-0.075
'6:05.314',-0.035,-0.090
'6:05.317',-0.025,-0.095
'6:05.319',-0.010,-0.075
'6:05.322',0.015,-0.075
'6:05.325',0.030,-0.090
'6:05.328',-0.005,-0.095
'6:05.331',-0.030,-0.120
'6:05.333',-0.055,-0.120
'6:05.336',-0.050,-0.095
'6:05.339',-0.010,-0.085
'6:05.342',0.005,-0.095
'6:05.344',-0.010,-0.105
'6:05.347',-0.040,-0.125
'6:05.350',-0.070,-0.120
'6:05.353',-0.075,-0.115
'6:05.356',-0.070,-0.110
'6:05.358',-0.070,-0.110
'6:05.361',-0.065,-0.120
'6:05.364',-0.080,-0.150
'6:05.367',-0.090,-0.135
'6:05.369',-0.100,-0.140
'6:05.372',-0.110,-0.120
'6:05.375',-0.090,-0.130
'6:05.378',-0.100,-0.135
'6:05.381',-0.095,-0.150
'6:05.383',-0.100,-0.140
'6:05.386',-0.105,-0.125
'6:05.389',-0.105,-0.100
'6:05.392',-0.095,-0.105
'6:05.394',-0.105,-0.115
'6:05.397',-0.110,-0.135
'6:05.400',-0.125,-0.145
'6:05.403',-0.110,-0.135
'6:05.406',-0.105,-0.110
'6:05.408',-0.100,-0.105
'6:05.411',-0.100,-0.130
'6:05.414',-0.110,-0.125
'6:05.417',-0.120,-0.140
'6:05.419',-0.105,-0.125
'6:05.422',-0.090,-0.120
'6:05.425',-0.080,-0.120
'6:05.428',-0.080,-0.115
'6:05.431',-0.080,-0.105
'6:05.433',-0.095,-0.075
'6:05.436',-0.095,-0.060
'6:05.439',-0.090,-0.065
'6:05.442',-0.055,-0.110
'6:05.444',0.010,-0.220
'6:05.447',0.095,-0.345
'6:05.450',0.230,-0.465
'6:05.453',0.340,-0.585
'6:05.456',0.455,-0.690
'6:05.458',0.560,-0.795
'6:05.461',0.635,-0.885
'6:05.464',0.735,-0.975
'6:05.467',0.840,-1.075
'6:05.469',0.975,-1.135
'6:05.472',1.120,-1.165
'6:05.475',1.280,-1.225
'6:05.478',1.450,-1.250
'6:05.481',1.615,-1.265
'6:05.483',1.740,-1.245
'6:05.486',1.825,-1.205
'6:05.489',1.830,-1.190
'6:05.492',1.740,-1.195
'6:05.494',1.525,-1.210
'6:05.497',1.220,-1.200
'6:05.500',0.935,-1.130
'6:05.503',0.700,-1.065
'6:05.506',0.560,-0.995
'6:05.508',0.500,-0.935
'6:05.511',0.470,-0.890
'6:05.514',0.445,-0.825
'6:05.517',0.440,-0.745
'6:05.519',0.460,-0.650
'6:05.522',0.460,-0.565
'6:05.525',0.450,-0.515
'6:05.528',0.400,-0.475
'6:05.531',0.345,-0.445
'6:05.533',0.265,-0.400
'6:05.536',0.255,-0.335
'6:05.539',0.220,-0.280
'6:05.542',0.205,-0.220
'6:05.544',0.165,-0.190
'6:05.547',0.110,-0.155
'6:05.550',0.055,-0.095
'6:05.553',0.010,-0.055
'6:05.556',-0.025,-0.015
'6:05.558',-0.045,0.005
'6:05.561',-0.085,0.015
'6:05.564',-0.100,0.045
'6:05.567',-0.135,0.080
'6:05.569',-0.150,0.120
'6:05.572',-0.180,0.160
'6:05.575',-0.205,0.180
'6:05.578',-0.245,0.170
'6:05.581',-0.270,0.180
'6:05.583',-0.275,0.185
'6:05.586',-0.280,0.210
'6:05.589',-0.280,0.240
'6:05.592',-0.275,0.270
'6:05.594',-0.295,0.255
'6:05.597',-0.310,0.260
'6:05.600',-0.325,0.260
'6:05.603',-0.325,0.275
'6:05.606',-0.295,0.305
'6:05.608',-0.295,0.310
'6:05.611',-0.305,0.310
'6:05.614',-0.320,0.300
'6:05.617',-0.345,0.320
'6:05.619',-0.355,0.340
'6:05.622',-0.335,0.370
'6:05.625',-0.315,0.380
'6:05.628',-0.340,0.380
'6:05.631',-0.345,0.370
'6:05.633',-0.365,0.390
'6:05.636',-0.370,0.420
'6:05.639',-0.355,0.455
'6:05.642',-0.350,0.475
'6:05.644',-0.360,0.465
'6:05.647',-0.365,0.455
'6:05.650',-0.390,0.485
'6:05.653',-0.385,0.505
'6:05.656',-0.375,0.525
'6:05.658',-0.375,0.550
'6:05.661',-0.385,0.550
'6:05.664',-0.405,0.570
'6:05.667',-0.405,0.580
'6:05.669',-0.415,0.610
'6:05.672',-0.390,0.645
'6:05.675',-0.390,0.625
'6:05.678',-0.410,0.655
'6:05.681',-0.430,0.645
'6:05.683',-0.455,0.665
'6:05.686',-0.455,0.680
'6:05.689',-0.450,0.720
'6:05.692',-0.440,0.740
'6:05.694',-0.450,0.735
'6:05.697',-0.480,0.720
'6:05.700',-0.510,0.740
'6:05.703',-0.520,0.755
'6:05.706',-0.490,0.775
'6:05.708',-0.485,0.765
'6:05.711',-0.495,0.745
'6:05.714',-0.505,0.735
'6:05.717',-0.525,0.735
'6:05.719',-0.530,0.765
'6:05.722',-0.535,0.770
'6:05.725',-0.515,0.760
'6:05.728',-0.535,0.725
'6:05.731',-0.540,0.695
'6:05.733',-0.540,0.675
'6:05.736',-0.525,0.680
'6:05.739',-0.505,0.675
'6:05.742',-0.510,0.650
'6:05.744',-0.505,0.605
'6:05.747',-0.505,0.570
'6:05.750',-0.495,0.530
'6:05.753',-0.460,0.515
'6:05.756',-0.425,0.490
'6:05.758',-0.400,0.445
'6:05.761',-0.390,0.400
'6:05.764',-0.370,0.355
'6:05.767',-0.380,0.340
'6:05.769',-0.330,0.320
'6:05.772',-0.295,0.305
'6:05.775',-0.275,0.275
'6:05.778',-0.255,0.235
'6:05.781',-0.270,0.185
'6:05.783',-0.255,0.155
'6:05.786',-0.230,0.145
'6:05.789',-0.185,0.120
'6:05.792',-0.155,0.110
'6:05.794',-0.150,0.085
'6:05.797',-0.140,0.035
'6:05.800',-0.155,0.020
'6:05.803',-0.145,0.035
'6:05.806',-0.125,0.030
'6:05.808',-0.110,0.035
'6:05.811',-0.085,0.025
'6:05.814',-0.100,-0.015
'6:05.817',-0.125,-0.020
'6:05.819',-0.095,-0.020
'6:05.822',-0.095,0.000
'6:05.825',-0.090,-0.005
'6:05.828',-0.095,0.000
'6:05.831',-0.100,-0.035
'6:05.833',-0.115,-0.030
'6:05.836',-0.105,-0.010
'6:05.839',-0.105,-0.015
'6:05.842',-0.100,-0.010
'6:05.844',-0.110,-0.020
'6:05.847',-0.135,-0.040
'6:05.850',-0.130,-0.040
'6:05.853',-0.125,-0.025
'6:05.856',-0.110,-0.005
'6:05.858',-0.090,-0.010
'6:05.861',-0.100,-0.015
'6:05.864',-0.125,-0.035
'6:05.867',-0.135,-0.035
'6:05.869',-0.125,-0.030
'6:05.872',-0.115,-0.015
'6:05.875',-0.095,-0.015
'6:05.878',-0.110,-0.015
'6:05.881',-0.130,-0.020
'6:05.883',-0.140,-0.015
'6:05.886',-0.145,-0.005
'6:05.889',-0.135,0.000
'6:05.892',-0.120,0.005
'6:05.894',-0.120,-0.025
'6:05.897',-0.135,-0.020
'6:05.900',-0.130,-0.010
'6:05.903',-0.130,0.010
'6:05.906',-0.125,0.015
'6:05.908',-0.125,0.015
'6:05.911',-0.135,-0.010
'6:05.914',-0.140,-0.025
'6:05.917',-0.145,-0.010
'6:05.919',-0.145,0.000
'6:05.922',-0.130,0.015
'6:05.925',-0.125,0.015
'6:05.928',-0.125,0.000
'6:05.931',-0.145,-0.025
'6:05.933',-0.155,-0.020
'6:05.936',-0.155,-0.015
'6:05.939',-0.130,-0.005
'6:05.942',-0.120,-0.005
'6:05.944',-0.135,-0.005
'6:05.947',-0.145,-0.005
'6:05.950',-0.160,-0.005
'6:05.953',-0.155,-0.010
'6:05.956',-0.165,0.000
'6:05.958',-0.135,-0.005
'6:05.961',-0.145,-0.005
'6:05.964',-0.135,-0.025
'6:05.967',-0.145,-0.015
'6:05.969',-0.135,-0.010
'6:05.972',-0.130,-0.015
'6:05.975',-0.120,-0.005
'6:05.978',-0.125,-0.020
'6:05.981',-0.120,-0.030
'6:05.983',-0.125,-0.030
'6:05.986',-0.130,-0.025
'6:05.989',-0.120,-0.005
'6:05.992',-0.115,-0.015
'6:05.994',-0.120,-0.030
'6:05.997',-0.135,-0.030
'6:06.000',-0.140,-0.040
'6:06.003',-0.135,-0.035
'6:06.006',-0.145,-0.015
'6:06.008',-0.125,-0.020
'6:06.011',-0.125,-0.040
'6:06.014',-0.145,-0.050
'6:06.017',-0.140,-0.040
'6:06.019',-0.140,-0.030
'6:06.022',-0.140,-0.020
'6:06.025',-0.110,-0.030
'6:06.028',-0.115,-0.040
'6:06.031',-0.145,-0.050
'6:06.033',-0.160,-0.045
'6:06.036',-0.150,-0.035
'6:06.039',-0.130,-0.020
'6:06.042',-0.120,-0.020
'6:06.044',-0.120,-0.025
'6:06.047',-0.145,-0.035
'6:06.050',-0.140,-0.040
'6:06.053',-0.140,-0.035
'6:06.056',-0.135,-0.025
'6:06.058',-0.120,-0.015
'6:06.061',-0.110,-0.025
'6:06.064',-0.125,-0.045
'6:06.067',-0.140,-0.040
'6:06.069',-0.130,-0.030
'6:06.072',-0.115,-0.030
'6:06.075',-0.075,-0.020
'6:06.078',-0.065,-0.030
'6:06.081',-0.060,-0.040
'6:06.083',-0.060,-0.025
'6:06.086',-0.060,0.005
'6:06.089',-0.060,0.035
'6:06.092',-0.060,0.035
'6:06.094',-0.085,0.015
'6:06.097',-0.095,0.000
'6:06.100',-0.085,0.020
'6:06.103',-0.075,0.030
'6:06.106',-0.055,0.055
'6:06.108',-0.030,0.035
'6:06.111',-0.040,0.015
'6:06.114',-0.050,-0.010
'6:06.117',-0.060,-0.025
'6:06.119',-0.060,-0.025
'6:06.122',-0.050,-0.020
'6:06.125',-0.040,-0.030
'6:06.128',-0.055,-0.055
'6:06.131',-0.070,-0.060
'6:06.133',-0.105,-0.045
'6:06.136',-0.105,-0.045
'6:06.139',-0.095,-0.040
'6:06.142',-0.095,-0.045
'6:06.144',-0.110,-0.060
'6:06.147',-0.125,-0.080
'6:06.150',-0.140,-0.070
'6:06.153',-0.135,-0.060
'6:06.156',-0.125,-0.040
'6:06.158',-0.115,-0.035
'6:06.161',-0.130,-0.065
'6:06.164',-0.135,-0.090
'6:06.167',-0.145,-0.085
'6:06.169',-0.140,-0.065
'6:06.172',-0.130,-0.045
'6:06.175',-0.130,-0.055
'6:06.178',-0.145,-0.055
'6:06.181',-0.160,-0.080
'6:06.183',-0.165,-0.075
'6:06.186',-0.170,-0.075
'6:06.189',-0.155,-0.050
'6:06.192',-0.135,-0.050
'6:06.194',-0.130,-0.065
'6:06.197',-0.140,-0.075
'6:06.200',-0.150,-0.090
'6:06.203',-0.140,-0.075
'6:06.206',-0.140,-0.070
'6:06.208',-0.125,-0.055
'6:06.211',-0.110,-0.060
'6:06.214',-0.110,-0.055
'6:06.217',-0.130,-0.045
'6:06.219',-0.155,0.010
'6:06.222',-0.155,0.010
'6:06.225',-0.150,-0.010
'6:06.228',-0.120,-0.070
'6:06.231',-0.040,-0.170
'6:06.233',0.070,-0.280
'6:06.236',0.220,-0.415
'6:06.239',0.380,-0.550
'6:06.242',0.510,-0.695
'6:06.244',0.625,-0.845
'6:06.247',0.765,-0.980
'6:06.250',0.935,-1.075
'6:06.253',1.175,-1.120
'6:06.256',1.385,-1.145
'6:06.258',1.600,-1.170
'6:06.261',1.785,-1.220
'6:06.264',1.915,-1.235
'6:06.267',1.965,-1.225
'6:06.269',1.965,-1.195
'6:06.272',1.925,-1.170
'6:06.275',1.800,-1.165
'6:06.278',1.515,-1.150
'6:06.281',1.130,-1.125
'6:06.283',0.805,-1.045
'6:06.286',0.595,-0.970
'6:06.289',0.545,-0.870
'6:06.292',0.550,-0.770
'6:06.294',0.545,-0.690
'6:06.297',0.520,-0.615
'6:06.300',0.475,-0.530
'6:06.303',0.440,-0.465
'6:06.306',0.415,-0.425
'6:06.308',0.385,-0.380
'6:06.311',0.335,-0.350
'6:06.314',0.285,-0.300
'6:06.317',0.215,-0.245
'6:06.319',0.190,-0.170
'6:06.322',0.150,-0.110
'6:06.325',0.105,-0.060
'6:06.328',0.065,-0.035
'6:06.331',0.000,-0.020
'6:06.333',-0.070,0.020
'6:06.336',-0.110,0.070
'6:06.339',-0.140,0.120
'6:06.342',-0.150,0.145
'6:06.344',-0.175,0.170
'6:06.347',-0.220,0.165
'6:06.350',-0.260,0.185
'6:06.353',-0.280,0.215
'6:06.356',-0.295,0.225
'6:06.358',-0.295,0.255
'6:06.361',-0.300,0.250
'6:06.364',-0.310,0.255
'6:06.367',-0.320,0.265
'6:06.369',-0.325,0.300
'6:06.372',-0.325,0.330
'6:06.375',-0.315,0.325
'6:06.378',-0.330,0.330
'6:06.381',-0.350,0.330
'6:06.383',-0.375,0.350
'6:06.386',-0.360,0.365
'6:06.389',-0.345,0.390
'6:06.392',-0.345,0.405
'6:06.394',-0.345,0.410
'6:06.397',-0.365,0.400
'6:06.400',-0.375,0.435
'6:06.403',-0.380,0.450
'6:06.406',-0.395,0.480
'6:06.408',-0.365,0.505
'6:06.411',-0.380,0.510
'6:06.414',-0.400,0.515
'6:06.417',-0.420,0.525
'6:06.419',-0.415,0.555
'6:06.422',-0.410,0.585
'6:06.425',-0.395,0.575
'6:06.428',-0.410,0.600
'6:06.431',-0.425,0.605
'6:06.433',-0.445,0.625
'6:06.436',-0.455,0.650
'6:06.439',-0.450,0.675
'6:06.442',-0.445,0.705
'6:06.444',-0.445,0.700
'6:06.447',-0.475,0.715
'6:06.450',-0.500,0.730
'6:06.453',-0.500,0.760
'6:06.456',-0.510,0.775
'6:06.458',-0.505,0.780
'6:06.461',-0.505,0.780
'6:06.464',-0.520,0.765
'6:06.467',-0.545,0.780
'6:06.469',-0.550,0.800
'6:06.472',-0.555,0.815
'6:06.475',-0.535,0.810
'6:06.478',-0.535,0.800
'6:06.481',-0.560,0.790
'6:06.483',-0.570,0.775
'6:06.486',-0.560,0.780
'6:06.489',-0.565,0.770
'6:06.492',-0.570,0.765
'6:06.494',-0.565,0.740
'6:06.497',-0.580,0.705
'6:06.500',-0.580,0.700
'6:06.503',-0.565,0.675
'6:06.506',-0.550,0.665
'6:06.508',-0.545,0.615
'6:06.511',-0.520,0.585
'6:06.514',-0.525,0.540
'6:06.517',-0.505,0.520
'6:06.519',-0.470,0.510
'6:06.522',-0.445,0.485
'6:06.525',-0.410,0.455
'6:06.528',-0.385,0.410
'6:06.531',-0.390,0.360
'6:06.533',-0.390,0.310
'6:06.536',-0.360,0.295
'6:06.539',-0.315,0.270
'6:06.542',-0.275,0.255
'6:06.544',-0.240,0.225
'6:06.547',-0.240,0.170
'6:06.550',-0.240,0.150
'6:06.553',-0.220,0.145
'6:06.556',-0.200,0.145
'6:06.558',-0.155,0.125
'6:06.561',-0.140,0.115
'6:06.564',-0.135,0.085
'6:06.567',-0.160,0.070
'6:06.569',-0.150,0.075
'6:06.572',-0.140,0.080
'6:06.575',-0.125,0.065
'6:06.578',-0.135,0.055
'6:06.581',-0.160,0.020
'6:06.583',-0.155,0.025
'6:06.586',-0.135,0.035
'6:06.589',-0.130,0.045
'6:06.592',-0.125,0.055
'6:06.594',-0.130,0.025
'6:06.597',-0.135,0.005
'6:06.600',-0.145,0.010
'6:06.603',-0.135,0.020
'6:06.606',-0.120,0.035
'6:06.608',-0.115,0.035
'6:06.611',-0.130,0.020
'6:06.614',-0.155,-0.005
'6:06.617',-0.170,-0.010
'6:06.619',-0.145,0.015
'6:06.622',-0.135,0.035
'6:06.625',-0.130,0.035
'6:06.628',-0.125,0.025
'6:06.631',-0.145,0.010
'6:06.633',-0.155,0.005
'6:06.636',-0.150,0.015
'6:06.639',-0.130,0.040
'6:06.642',-0.120,0.045
'6:06.644',-0.130,0.035
'6:06.647',-0.140,0.020
'6:06.650',-0.165,0.025
'6:06.653',-0.175,0.045
'6:06.656',-0.165,0.065
'6:06.658',-0.130,0.060
'6:06.661',-0.130,0.050
'6:06.664',-0.135,0.050
'6:06.667',-0.165,0.030
'6:06.669',-0.175,0.050
'6:06.672',-0.160,0.055
'6:06.675',-0.170,0.065
'6:06.678',-0.170,0.055
'6:06.681',-0.175,0.030
'6:06.683',-0.175,0.035
'6:06.686',-0.165,0.055
'6:06.689',-0.165,0.050
'6:06.692',-0.160,0.045
'6:06.694',-0.170,0.040
'6:06.697',-0.180,0.015
'6:06.700',-0.185,0.040
'6:06.703',-0.160,0.050
'6:06.706',-0.135,0.070
'6:06.708',-0.115,0.075
'6:06.711',-0.135,0.045
'6:06.714',-0.155,0.030
'6:06.717',-0.180,0.035
'6:06.719',-0.180,0.035
'6:06.722',-0.150,0.050
'6:06.725',-0.120,0.065
'6:06.728',-0.130,0.055
'6:06.731',-0.165,0.025
'6:06.733',-0.175,0.030
'6:06.736',-0.155,0.045
'6:06.739',-0.150,0.040
'6:06.742',-0.125,0.050
'6:06.744',-0.125,0.035
'6:06.747',-0.140,0.015
'6:06.750',-0.125,0.025
'6:06.753',-0.135,0.035
'6:06.756',-0.125,0.040
'6:06.758',-0.125,0.045
'6:06.761',-0.125,0.025
'6:06.764',-0.150,0.005
'6:06.767',-0.160,0.000
'6:06.769',-0.160,0.025
'6:06.772',-0.160,0.030
'6:06.775',-0.145,0.040
'6:06.778',-0.145,0.035
'6:06.781',-0.160,0.020
'6:06.783',-0.175,0.000
'6:06.786',-0.155,0.015
'6:06.789',-0.145,0.035
'6:06.792',-0.125,0.020
'6:06.794',-0.140,0.010
'6:06.797',-0.175,-0.005
'6:06.800',-0.180,0.010
'6:06.803',-0.175,0.015
'6:06.806',-0.150,0.020
'6:06.808',-0.125,0.025
'6:06.811',-0.135,0.020
'6:06.814',-0.145,-0.015
'6:06.817',-0.150,-0.005
'6:06.819',-0.155,0.035
'6:06.822',-0.145,0.035
'6:06.825',-0.110,0.045
'6:06.828',-0.100,0.030
'6:06.831',-0.125,0.020
'6:06.833',-0.130,0.015
'6:06.836',-0.125,0.050
'6:06.839',-0.110,0.070
'6:06.842',-0.075,0.075
'6:06.844',-0.075,0.065
'6:06.847',-0.085,0.050
'6:06.850',-0.095,0.075
'6:06.853',-0.100,0.080
'6:06.856',-0.090,0.120
'6:06.858',-0.080,0.105
'6:06.861',-0.085,0.105
'6:06.864',-0.080,0.090
'6:06.867',-0.075,0.085
'6:06.869',-0.065,0.085
'6:06.872',-0.060,0.085
'6:06.875',-0.065,0.065
'6:06.878',-0.080,0.030
'6:06.881',-0.085,0.000
'6:06.883',-0.095,0.005
'6:06.886',-0.090,0.015
'6:06.889',-0.085,0.015
'6:06.892',-0.090,0.020
'6:06.894',-0.100,0.015
'6:06.897',-0.110,-0.005
'6:06.900',-0.135,-0.015
'6:06.903',-0.130,-0.005
'6:06.906',-0.120,0.020
'6:06.908',-0.105,0.015
'6:06.911',-0.120,0.005
'6:06.914',-0.150,-0.010
'6:06.917',-0.170,-0.020
'6:06.919',-0.185,-0.010
'6:06.922',-0.170,0.000
'6:06.925',-0.140,0.005
'6:06.928',-0.135,0.000
'6:06.931',-0.160,-0.030
'6:06.933',-0.160,-0.035
'6:06.936',-0.160,-0.015
'6:06.939',-0.150,-0.005
'6:06.942',-0.140,-0.020
'6:06.944',-0.150,-0.015
'6:06.947',-0.175,-0.040
'6:06.950',-0.160,-0.050
'6:06.953',-0.160,-0.025
'6:06.956',-0.150,-0.015
'6:06.958',-0.140,-0.015
'6:06.961',-0.125,-0.030
'6:06.964',-0.135,-0.045
'6:06.967',-0.145,-0.050
'6:06.969',-0.135,-0.040
'6:06.972',-0.120,-0.020
'6:06.975',-0.130,-0.025
'6:06.978',-0.135,-0.030
'6:06.981',-0.130,-0.035
'6:06.983',-0.130,-0.025
'6:06.986',-0.105,-0.010
'6:06.989',-0.090,0.020
'6:06.992',-0.095,0.050
'6:06.994',-0.120,0.050
'6:06.997',-0.130,0.035
'6:07.000',-0.105,0.000
'6:07.003',-0.035,-0.040
'6:07.006',0.110,-0.120
'6:07.008',0.230,-0.245
'6:07.011',0.330,-0.395
'6:07.014',0.390,-0.580
'6:07.017',0.475,-0.715
'6:07.019',0.600,-0.835
'6:07.022',0.760,-0.920
'6:07.025',0.970,-0.995
'6:07.028',1.150,-1.070
'6:07.031',1.330,-1.145
'6:07.033',1.480,-1.170
'6:07.036',1.670,-1.175
'6:07.039',1.820,-1.155
'6:07.042',1.900,-1.145
'6:07.044',1.910,-1.150
'6:07.047',1.855,-1.155
'6:07.050',1.720,-1.150
'6:07.053',1.490,-1.105
'6:07.056',1.175,-1.025
'6:07.058',0.850,-0.970
'6:07.061',0.645,-0.905
'6:07.064',0.550,-0.830
'6:07.067',0.540,-0.755
'6:07.069',0.545,-0.630
'6:07.072',0.540,-0.550
'6:07.075',0.515,-0.485
'6:07.078',0.470,-0.460
'6:07.081',0.425,-0.415
'6:07.083',0.385,-0.370
'6:07.086',0.360,-0.295
'6:07.089',0.310,-0.220
'6:07.092',0.275,-0.180
'6:07.094',0.225,-0.140
'6:07.097',0.170,-0.115
'6:07.100',0.120,-0.060
'6:07.103',0.070,-0.010
'6:07.106',0.040,0.035
'6:07.108',0.000,0.080
'6:07.111',-0.065,0.100
'6:07.114',-0.125,0.105
'6:07.117',-0.170,0.145
'6:07.119',-0.180,0.185
'6:07.122',-0.190,0.225
'6:07.125',-0.190,0.245
'6:07.128',-0.220,0.255
'6:07.131',-0.265,0.245
'6:07.133',-0.295,0.260
'6:07.136',-0.315,0.285
'6:07.139',-0.305,0.310
'6:07.142',-0.280,0.325
'6:07.144',-0.300,0.320
'6:07.147',-0.305,0.305
'6:07.150',-0.330,0.325
'6:07.153',-0.340,0.345
'6:07.156',-0.325,0.365
'6:07.158',-0.315,0.380
'6:07.161',-0.325,0.370
'6:07.164',-0.350,0.370
'6:07.167',-0.360,0.370
'6:07.169',-0.350,0.410
'6:07.172',-0.350,0.425
'6:07.175',-0.345,0.450
'6:07.178',-0.355,0.430
'6:07.181',-0.375,0.445
'6:07.183',-0.380,0.465
'6:07.186',-0.390,0.480
'6:07.189',-0.360,0.505
'6:07.192',-0.350,0.525
'6:07.194',-0.365,0.520
'6:07.197',-0.380,0.540
'6:07.200',-0.400,0.545
'6:07.203',-0.415,0.590
'6:07.206',-0.395,0.625
'6:07.208',-0.390,0.650
'6:07.211',-0.395,0.655
'6:07.214',-0.430,0.665
'6:07.217',-0.455,0.675
'6:07.219',-0.465,0.710
'6:07.222',-0.460,0.750
'6:07.225',-0.475,0.770
'6:07.228',-0.475,0.765
'6:07.231',-0.475,0.770
'6:07.233',-0.505,0.785
'6:07.236',-0.505,0.810
'6:07.239',-0.500,0.845
'6:07.242',-0.490,0.850
'6:07.244',-0.495,0.860
'6:07.247',-0.525,0.860
'6:07.250',-0.555,0.875
'6:07.253',-0.560,0.880
'6:07.256',-0.565,0.890
'6:07.258',-0.570,0.890
'6:07.261',-0.550,0.880
'6:07.264',-0.560,0.860
'6:07.267',-0.590,0.865
'6:07.269',-0.585,0.860
'6:07.272',-0.580,0.850
'6:07.275',-0.580,0.840
'6:07.278',-0.585,0.795
'6:07.281',-0.575,0.765
'6:07.283',-0.565,0.745
'6:07.286',-0.550,0.730
'6:07.289',-0.540,0.725
'6:07.292',-0.520,0.695
'6:07.294',-0.525,0.655
'6:07.297',-0.500,0.605
'6:07.300',-0.485,0.575
'6:07.303',-0.450,0.540
'6:07.306',-0.430,0.525
'6:07.308',-0.405,0.490
'6:07.311',-0.385,0.440
'6:07.314',-0.380,0.395
'6:07.317',-0.380,0.360
'6:07.319',-0.335,0.340
'6:07.322',-0.275,0.315
'6:07.325',-0.235,0.290
'6:07.328',-0.225,0.250
'6:07.331',-0.220,0.225
'6:07.333',-0.220,0.220
'6:07.336',-0.215,0.220
'6:07.339',-0.180,0.210
'6:07.342',-0.140,0.185
'6:07.344',-0.125,0.170
'6:07.347',-0.140,0.140
'6:07.350',-0.155,0.115
'6:07.353',-0.165,0.120
'6:07.356',-0.145,0.130
'6:07.358',-0.145,0.125
'6:07.361',-0.135,0.110
'6:07.364',-0.135,0.100
'6:07.367',-0.150,0.095
'6:07.369',-0.145,0.090
'6:07.372',-0.125,0.100
'6:07.375',-0.130,0.100
'6:07.378',-0.130,0.085
'6:07.381',-0.150,0.080
'6:07.383',-0.155,0.075
'6:07.386',-0.140,0.075
'6:07.389',-0.130,0.110
'6:07.392',-0.110,0.095
'6:07.394',-0.125,0.080
'6:07.397',-0.140,0.070
'6:07.400',-0.155,0.070
'6:07.403',-0.155,0.085
'6:07.406',-0.140,0.095
'6:07.408',-0.130,0.115
'6:07.411',-0.120,0.095
'6:07.414',-0.140,0.070
'6:07.417',-0.165,0.080
'6:07.419',-0.180,0.085
'6:07.422',-0.165,0.110
'6:07.425',-0.135,0.105
'6:07.428',-0.130,0.105
'6:07.431',-0.145,0.090
'6:07.433',-0.140,0.085
'6:07.436',-0.150,0.095
'6:07.439',-0.135,0.115
'6:07.442',-0.125,0.110
'6:07.444',-0.145,0.105
'6:07.447',-0.170,0.105
'6:07.450',-0.200,0.095
'6:07.453',-0.200,0.095
'6:07.456',-0.165,0.130
'6:07.458',-0.150,0.110
'6:07.461',-0.140,0.120
'6:07.464',-0.140,0.095
'6:07.467',-0.170,0.105
'6:07.469',-0.170,0.125
'6:07.472',-0.175,0.130
'6:07.475',-0.165,0.125
'6:07.478',-0.165,0.110
'6:07.481',-0.165,0.100
'6:07.483',-0.180,0.085
'6:07.486',-0.170,0.115
'6:07.489',-0.155,0.125
'6:07.492',-0.140,0.120
'6:07.494',-0.160,0.110
'6:07.497',-0.180,0.090
'6:07.500',-0.200,0.095
'6:07.503',-0.195,0.100
'6:07.506',-0.145,0.120
'6:07.508',-0.140,0.115
'6:07.511',-0.160,0.120
'6:07.514',-0.165,0.090
'6:07.517',-0.165,0.085
'6:07.519',-0.160,0.110
'6:07.522',-0.140,0.125
'6:07.525',-0.130,0.115
'6:07.528',-0.135,0.115
'6:07.531',-0.160,0.105
'6:07.533',-0.175,0.085
'6:07.536',-0.170,0.095
'6:07.539',-0.170,0.110
'6:07.542',-0.155,0.110
'6:07.544',-0.140,0.100
'6:07.547',-0.155,0.090
'6:07.550',-0.160,0.080
'6:07.553',-0.160,0.095
'6:07.556',-0.165,0.090
'6:07.558',-0.135,0.095
'6:07.561',-0.140,0.085
'6:07.564',-0.135,0.065
'6:07.567',-0.155,0.070
'6:07.569',-0.145,0.085
'6:07.572',-0.130,0.100
'6:07.575',-0.115,0.090
'6:07.578',-0.125,0.070
'6:07.581',-0.145,0.060
'6:07.583',-0.160,0.050
'6:07.586',-0.155,0.080
'6:07.589',-0.135,0.095
'6:07.592',-0.135,0.100
'6:07.594',-0.165,0.100
'6:07.597',-0.150,0.085
'6:07.600',-0.160,0.075
'6:07.603',-0.140,0.105
'6:07.606',-0.115,0.120
'6:07.608',-0.115,0.115
'6:07.611',-0.115,0.105
'6:07.614',-0.115,0.110
'6:07.617',-0.145,0.120
'6:07.619',-0.155,0.130
'6:07.622',-0.120,0.155
'6:07.625',-0.100,0.145
'6:07.628',-0.100,0.145
'6:07.631',-0.095,0.145
'6:07.633',-0.085,0.160
'6:07.636',-0.100,0.170
'6:07.639',-0.085,0.195
'6:07.642',-0.100,0.180
'6:07.644',-0.090,0.160
'6:07.647',-0.090,0.130
'6:07.650',-0.100,0.130
'6:07.653',-0.090,0.130
'6:07.656',-0.090,0.130
'6:07.658',-0.085,0.125
'6:07.661',-0.110,0.105
'6:07.664',-0.120,0.055
'6:07.667',-0.140,0.045
'6:07.669',-0.125,0.060
'6:07.672',-0.130,0.070
'6:07.675',-0.095,0.075
'6:07.678',-0.115,0.060
'6:07.681',-0.130,0.045
'6:07.683',-0.140,0.045
'6:07.686',-0.145,0.050
'6:07.689',-0.140,0.070
'6:07.692',-0.120,0.065
'6:07.694',-0.120,0.050
'6:07.697',-0.130,0.035
'6:07.700',-0.155,0.035
'6:07.703',-0.175,0.030
'6:07.706',-0.160,0.050
'6:07.708',-0.145,0.050
'6:07.711',-0.165,0.035
'6:07.714',-0.160,0.020
'6:07.717',-0.170,0.010
'6:07.719',-0.165,0.015
'6:07.722',-0.155,0.035
'6:07.725',-0.150,0.030
'6:07.728',-0.160,0.000
'6:07.731',-0.170,0.000
'6:07.733',-0.180,0.000
'6:07.736',-0.170,0.020
'6:07.739',-0.135,0.030
'6:07.742',-0.125,0.030
'6:07.744',-0.130,0.005
'6:07.747',-0.135,-0.015
'6:07.750',-0.145,-0.015
'6:07.753',-0.140,0.000
'6:07.756',-0.125,0.020
'6:07.758',-0.100,0.025
'6:07.761',-0.110,-0.005
'6:07.764',-0.115,-0.005
'6:07.767',-0.125,-0.015
'6:07.769',-0.125,-0.015
'6:07.772',-0.115,0.015
'6:07.775',-0.090,0.030
'6:07.778',-0.095,0.040
'6:07.781',-0.090,0.045
'6:07.783',-0.100,0.065
'6:07.786',-0.090,0.085
'6:07.789',-0.075,0.080
'6:07.792',-0.050,0.045
'6:07.794',0.020,-0.035
'6:07.797',0.110,-0.150
'6:07.800',0.220,-0.225
'6:07.803',0.305,-0.335
'6:07.806',0.430,-0.430
'6:07.808',0.560,-0.520
'6:07.811',0.660,-0.635
'6:07.814',0.780,-0.750
'6:07.817',0.925,-0.825
'6:07.819',1.090,-0.875
'6:07.822',1.260,-0.925
'6:07.825',1.400,-0.975
'6:07.828',1.565,-1.025
'6:07.831',1.715,-1.075
'6:07.833',1.835,-1.110
'6:07.836',1.890,-1.105
'6:07.839',1.890,-1.105
'6:07.842',1.810,-1.095
'6:07.844',1.635,-1.115
'6:07.847',1.340,-1.130
'6:07.850',1.025,-1.080
'6:07.853',0.745,-1.020
'6:07.856',0.555,-0.975
'6:07.858',0.450,-0.925
'6:07.861',0.405,-0.885
'6:07.864',0.385,-0.810
'6:07.867',0.375,-0.725
'6:07.869',0.390,-0.625
'6:07.872',0.415,-0.520
'6:07.875',0.410,-0.455
'6:07.878',0.370,-0.405
'6:07.881',0.320,-0.380
'6:07.883',0.270,-0.320
'6:07.886',0.250,-0.265
'6:07.889',0.235,-0.200
'6:07.892',0.210,-0.155
'6:07.894',0.185,-0.125
'6:07.897',0.140,-0.100
'6:07.900',0.090,-0.060
'6:07.903',0.045,-0.020
'6:07.906',0.035,0.025
'6:07.908',0.015,0.065
'6:07.911',-0.045,0.090
'6:07.914',-0.070,0.100
'6:07.917',-0.095,0.140
'6:07.919',-0.135,0.180
'6:07.922',-0.145,0.210
'6:07.925',-0.150,0.240
'6:07.928',-0.185,0.255
'6:07.931',-0.220,0.250
'6:07.933',-0.255,0.265
'6:07.936',-0.260,0.280
'6:07.939',-0.250,0.310
'6:07.942',-0.245,0.345
'6:07.944',-0.250,0.320
'6:07.947',-0.275,0.310
'6:07.950',-0.280,0.315
'6:07.953',-0.290,0.325
'6:07.956',-0.275,0.360
'6:07.958',-0.270,0.365
'6:07.961',-0.275,0.380
'6:07.964',-0.285,0.370
'6:07.967',-0.305,0.375
'6:07.969',-0.285,0.370
'6:07.972',-0.275,0.410
'6:07.975',-0.270,0.420
'6:07.978',-0.285,0.400
'6:07.981',-0.300,0.415
'6:07.983',-0.315,0.425
'6:07.986',-0.315,0.440
'6:07.989',-0.305,0.470
'6:07.992',-0.320,0.485
'6:07.994',-0.325,0.485
'6:07.997',-0.345,0.485
'6:08.000',-0.355,0.490
'6:08.003',-0.355,0.510
'6:08.006',-0.345,0.535
'6:08.008',-0.330,0.550
'6:08.011',-0.345,0.550
'6:08.014',-0.360,0.560
'6:08.017',-0.370,0.595
'6:08.019',-0.370,0.600
'6:08.022',-0.370,0.630
'6:08.025',-0.360,0.645
'6:08.028',-0.370,0.645
'6:08.031',-0.365,0.640
'6:08.033',-0.380,0.650
'6:08.036',-0.400,0.680
'6:08.039',-0.400,0.720
'6:08.042',-0.400,0.730
'6:08.044',-0.405,0.750
'6:08.047',-0.415,0.745
'6:08.050',-0.435,0.760
'6:08.053',-0.430,0.785
'6:08.056',-0.410,0.805
'6:08.058',-0.415,0.840
'6:08.061',-0.450,0.825
'6:08.064',-0.465,0.815
'6:08.067',-0.480,0.815
'6:08.069',-0.490,0.845
'6:08.072',-0.490,0.875
'6:08.075',-0.495,0.850
'6:08.078',-0.495,0.850
'6:08.081',-0.505,0.835
'6:08.083',-0.530,0.855
'6:08.086',-0.515,0.860
'6:08.089',-0.520,0.870
'6:08.092',-0.495,0.880
'6:08.094',-0.505,0.855
'6:08.097',-0.515,0.830
'6:08.100',-0.525,0.815
'6:08.103',-0.520,0.830
'6:08.106',-0.515,0.825
'6:08.108',-0.510,0.790
'6:08.111',-0.500,0.770
'6:08.114',-0.530,0.740
'6:08.117',-0.520,0.720
'6:08.119',-0.505,0.710
'6:08.122',-0.480,0.680
'6:08.125',-0.445,0.650
'6:08.128',-0.425,0.610
'6:08.131',-0.430,0.570
'6:08.133',-0.440,0.525
'6:08.136',-0.410,0.505
'6:08.139',-0.375,0.490
'6:08.142',-0.335,0.475
'6:08.144',-0.305,0.440
'6:08.147',-0.300,0.410
'6:08.150',-0.290,0.380
'6:08.153',-0.295,0.350
'6:08.156',-0.280,0.340
'6:08.158',-0.245,0.300
'6:08.161',-0.225,0.285
'6:08.164',-0.205,0.240
'6:08.167',-0.190,0.230
'6:08.169',-0.175,0.210
'6:08.172',-0.145,0.215
'6:08.175',-0.135,0.190
'6:08.178',-0.140,0.175
'6:08.181',-0.135,0.145
'6:08.183',-0.125,0.130
'6:08.186',-0.105,0.120
'6:08.189',-0.090,0.130
'6:08.192',-0.070,0.135
'6:08.194',-0.055,0.110
'6:08.197',-0.085,0.090
'6:08.200',-0.075,0.085
'6:08.203',-0.095,0.080
'6:08.206',-0.090,0.100
'6:08.208',-0.050,0.085
'6:08.211',-0.070,0.070
'6:08.214',-0.060,0.065
'6:08.217',-0.090,0.060
'6:08.219',-0.080,0.070
'6:08.222',-0.070,0.085
'6:08.225',-0.070,0.085
'6:08.228',-0.070,0.055
'6:08.231',-0.070,0.050
'6:08.233',-0.085,0.055
'6:08.236',-0.085,0.055
'6:08.239',-0.065,0.085
'6:08.242',-0.070,0.090
'6:08.244',-0.085,0.075
'6:08.247',-0.090,0.060
'6:08.250',-0.105,0.065
'6:08.253',-0.100,0.075
'6:08.256',-0.075,0.100
'6:08.258',-0.055,0.095
'6:08.261',-0.065,0.080
'6:08.264',-0.085,0.065
'6:08.267',-0.100,0.075
'6:08.269',-0.110,0.080
'6:08.272',-0.100,0.100
'6:08.275',-0.075,0.100
'6:08.278',-0.075,0.070
'6:08.281',-0.100,0.060
'6:08.283',-0.120,0.065
'6:08.286',-0.120,0.085
'6:08.289',-0.100,0.095
'6:08.292',-0.075,0.090
'6:08.294',-0.085,0.080
'6:08.297',-0.095,0.080
'6:08.300',-0.105,0.080
'6:08.303',-0.100,0.100
'6:08.306',-0.080,0.105
'6:08.308',-0.065,0.120
'6:08.311',-0.065,0.100
'6:08.314',-0.100,0.090
'6:08.317',-0.095,0.095
'6:08.319',-0.095,0.095
'6:08.322',-0.090,0.115
'6:08.325',-0.075,0.115
'6:08.328',-0.080,0.110
'6:08.331',-0.070,0.110
'6:08.333',-0.080,0.120
'6:08.336',-0.060,0.130
'6:08.339',-0.055,0.135
'6:08.342',-0.065,0.125
'6:08.344',-0.070,0.110
'6:08.347',-0.080,0.095
'6:08.350',-0.090,0.100
'6:08.353',-0.085,0.105
'6:08.356',-0.070,0.125
'6:08.358',-0.065,0.125
'6:08.361',-0.075,0.115
'6:08.364',-0.080,0.105
'6:08.367',-0.100,0.110
'6:08.369',-0.095,0.115
'6:08.372',-0.090,0.125
'6:08.375',-0.065,0.110
'6:08.378',-0.065,0.120
'6:08.381',-0.055,0.105
'6:08.383',-0.065,0.105
'6:08.386',-0.060,0.100
'6:08.389',-0.045,0.120
'6:08.392',-0.040,0.125
'6:08.394',-0.045,0.120
'6:08.397',-0.070,0.095
'6:08.400',-0.090,0.085
'6:08.403',-0.075,0.100
'6:08.406',-0.070,0.115
'6:08.408',-0.050,0.125
'6:08.411',-0.040,0.095
'6:08.414',-0.050,0.090
'6:08.417',-0.080,0.090
'6:08.419',-0.055,0.080
'6:08.422',-0.060,0.110
'6:08.425',-0.040,0.100
'6:08.428',-0.040,0.090
'6:08.431',-0.055,0.080
'6:08.433',-0.070,0.065
'6:08.436',-0.070,0.090
'6:08.439',-0.060,0.105
'6:08.442',-0.055,0.105
'6:08.444',-0.065,0.085
'6:08.447',-0.075,0.075
'6:08.450',-0.075,0.080
'6:08.453',-0.065,0.095
'6:08.456',-0.070,0.085
'6:08.458',-0.050,0.095
'6:08.461',-0.060,0.085
'6:08.464',-0.070,0.055
'6:08.467',-0.075,0.040
'6:08.469',-0.065,0.080
'6:08.472',-0.050,0.085
'6:08.475',-0.030,0.075
'6:08.478',-0.040,0.080
'6:08.481',-0.060,0.045
'6:08.483',-0.085,0.060
'6:08.486',-0.070,0.060
'6:08.489',-0.055,0.090
'6:08.492',-0.035,0.095
'6:08.494',-0.035,0.075
'6:08.497',-0.040,0.070
'6:08.500',-0.040,0.075
'6:08.503',-0.050,0.085
'6:08.506',-0.045,0.105
'6:08.508',-0.015,0.115
'6:08.511',-0.025,0.115
'6:08.514',-0.025,0.100
'6:08.517',-0.040,0.110
'6:08.519',-0.055,0.130
'6:08.522',-0.050,0.140
'6:08.525',-0.005,0.145
'6:08.528',-0.035,0.155
'6:08.531',-0.040,0.150
'6:08.533',-0.045,0.135
'6:08.536',-0.040,0.160
'6:08.539',-0.015,0.180
'6:08.542',0.005,0.205
'6:08.544',0.005,0.185
'6:08.547',0.005,0.175
'6:08.550',-0.025,0.170
'6:08.553',-0.025,0.180
'6:08.556',-0.010,0.180
'6:08.558',-0.010,0.165
'6:08.561',-0.015,0.140
'6:08.564',-0.030,0.110
'6:08.567',-0.040,0.110
'6:08.569',-0.025,0.100
'6:08.572',-0.020,0.100
'6:08.575',-0.010,0.100
'6:08.578',-0.025,0.070
'6:08.581',-0.045,0.055
'6:08.583',-0.065,0.060
'6:08.586',-0.065,0.065
'6:08.589',-0.055,0.070
'6:08.592',-0.030,0.085
'6:08.594',-0.015,0.065
'6:08.597',-0.030,0.065
'6:08.600',-0.045,0.060
'6:08.603',-0.045,0.065
'6:08.606',-0.055,0.070
'6:08.608',-0.045,0.075
'6:08.611',-0.070,0.050
'6:08.614',-0.085,0.045
'6:08.617',-0.095,0.040
'6:08.619',-0.090,0.050
'6:08.622',-0.075,0.065
'6:08.625',-0.070,0.075
'6:08.628',-0.050,0.055
'6:08.631',-0.085,0.040
'6:08.633',-0.105,0.035
'6:08.636',-0.110,0.050
'6:08.639',-0.085,0.060
'6:08.642',-0.065,0.055
'6:08.644',-0.065,0.035
'6:08.647',-0.100,0.005
'6:08.650',-0.110,0.010
'6:08.653',-0.110,0.030
'6:08.656',-0.090,0.030
'6:08.658',-0.075,0.015
'6:08.661',-0.070,0.020
'6:08.664',-0.075,0.000
'6:08.667',-0.065,0.000
'6:08.669',-0.055,0.010
'6:08.672',-0.040,0.025
'6:08.675',-0.035,0.025
'6:08.678',-0.040,0.005
'6:08.681',-0.055,-0.005
'6:08.683',-0.055,-0.005
'6:08.686',-0.045,0.000
'6:08.689',-0.035,0.035
'6:08.692',-0.010,0.035
'6:08.694',-0.020,0.040
'6:08.697',-0.040,0.035
'6:08.700',-0.070,0.035
'6:08.703',-0.080,0.050
'6:08.706',-0.050,0.025
'6:08.708',0.025,-0.030
'6:08.711',0.115,-0.130
'6:08.714',0.210,-0.245
'6:08.717',0.305,-0.345
'6:08.719',0.395,-0.455
'6:08.722',0.470,-0.545
'6:08.725',0.570,-0.630
'6:08.728',0.650,-0.695
'6:08.731',0.735,-0.785
'6:08.733',0.820,-0.850
'6:08.736',0.940,-0.915
'6:08.739',1.090,-0.970
'6:08.742',1.235,-1.025
'6:08.744',1.380,-1.065
'6:08.747',1.525,-1.110
'6:08.750',1.680,-1.130
'6:08.753',1.830,-1.125
'6:08.756',1.955,-1.105
'6:08.758',2.025,-1.090
'6:08.761',2.020,-1.085
'6:08.764',1.945,-1.120
'6:08.767',1.765,-1.115
'6:08.769',1.520,-1.080
'6:08.772',1.250,-1.050
'6:08.775',1.015,-0.995
'6:08.778',0.795,-0.965
'6:08.781',0.660,-0.910
'6:08.783',0.565,-0.860
'6:08.786',0.530,-0.770
'6:08.789',0.530,-0.675
'6:08.792',0.545,-0.585
'6:08.794',0.535,-0.550
'6:08.797',0.525,-0.495
'6:08.800',0.480,-0.455
'6:08.803',0.445,-0.395
'6:08.806',0.440,-0.360
'6:08.808',0.410,-0.315
'6:08.811',0.355,-0.285
'6:08.814',0.295,-0.270
'6:08.817',0.250,-0.220
'6:08.819',0.220,-0.160
'6:08.822',0.200,-0.105
'6:08.825',0.180,-0.075
'6:08.828',0.140,-0.040
'6:08.831',0.100,-0.010
'6:08.833',0.060,0.030
'6:08.836',0.020,0.085
'6:08.839',-0.005,0.140
'6:08.842',-0.035,0.180
'6:08.844',-0.070,0.210
'6:08.847',-0.125,0.220
'6:08.850',-0.160,0.235
'6:08.853',-0.190,0.265
'6:08.856',-0.195,0.305
'6:08.858',-0.200,0.310
'6:08.861',-0.230,0.310
'6:08.864',-0.260,0.305
'6:08.867',-0.280,0.320
'6:08.869',-0.290,0.340
'6:08.872',-0.260,0.365
'6:08.875',-0.235,0.360
'6:08.878',-0.240,0.365
'6:08.881',-0.250,0.375
'6:08.883',-0.275,0.370
'6:08.886',-0.280,0.390
'6:08.889',-0.275,0.430
'6:08.892',-0.265,0.430
'6:08.894',-0.285,0.445
'6:08.897',-0.290,0.430
'6:08.900',-0.305,0.430
'6:08.903',-0.315,0.465
'6:08.906',-0.310,0.480
'6:08.908',-0.310,0.510
'6:08.911',-0.320,0.500
'6:08.914',-0.320,0.485
'6:08.917',-0.330,0.510
'6:08.919',-0.330,0.540
'6:08.922',-0.315,0.560
'6:08.925',-0.310,0.560
'6:08.928',-0.320,0.570
'6:08.931',-0.340,0.575
'6:08.933',-0.350,0.585
'6:08.936',-0.365,0.615
'6:08.939',-0.360,0.650
'6:08.942',-0.335,0.660
'6:08.944',-0.340,0.670
'6:08.947',-0.365,0.680
'6:08.950',-0.385,0.695
'6:08.953',-0.390,0.725
'6:08.956',-0.385,0.735
'6:08.958',-0.370,0.760
'6:08.961',-0.375,0.770
'6:08.964',-0.385,0.780
'6:08.967',-0.410,0.790
'6:08.969',-0.430,0.805
'6:08.972',-0.425,0.810
'6:08.975',-0.420,0.830
'6:08.978',-0.435,0.825
'6:08.981',-0.450,0.820
'6:08.983',-0.465,0.830
'6:08.986',-0.470,0.855
'6:08.989',-0.460,0.885
'6:08.992',-0.455,0.890
'6:08.994',-0.475,0.890
'6:08.997',-0.490,0.885
'6:09.000',-0.525,0.880
'6:09.003',-0.515,0.885
'6:09.006',-0.505,0.895
'6:09.008',-0.500,0.900
'6:09.011',-0.525,0.895
'6:09.014',-0.515,0.880
'6:09.017',-0.530,0.875
'6:09.019',-0.540,0.875
'6:09.022',-0.530,0.890
'6:09.025',-0.520,0.860
'6:09.028',-0.530,0.820
'6:09.031',-0.530,0.790
'6:09.033',-0.540,0.750
'6:09.036',-0.510,0.760
'6:09.039',-0.485,0.740
'6:09.042',-0.475,0.710
'6:09.044',-0.470,0.670
'6:09.047',-0.460,0.600
'6:09.050',-0.435,0.580
'6:09.053',-0.410,0.550
'6:09.056',-0.375,0.545
'6:09.058',-0.350,0.520
'6:09.061',-0.325,0.475
'6:09.064',-0.320,0.440
'6:09.067',-0.330,0.410
'6:09.069',-0.320,0.400
'6:09.072',-0.285,0.370
'6:09.075',-0.245,0.345
'6:09.078',-0.215,0.310
'6:09.081',-0.190,0.265
'6:09.083',-0.175,0.240
'6:09.086',-0.175,0.240
'6:09.089',-0.150,0.220
'6:09.092',-0.115,0.215
'6:09.094',-0.105,0.185
'6:09.097',-0.105,0.165
'6:09.100',-0.110,0.135
'6:09.103',-0.105,0.135
'6:09.106',-0.095,0.135
'6:09.108',-0.090,0.140
'6:09.111',-0.080,0.125
'6:09.114',-0.080,0.110
'6:09.117',-0.080,0.115
'6:09.119',-0.075,0.105
'6:09.122',-0.060,0.135
'6:09.125',-0.045,0.115
'6:09.128',-0.065,0.100
'6:09.131',-0.095,0.080
'6:09.133',-0.125,0.065
'6:09.136',-0.110,0.100
'6:09.139',-0.090,0.125
'6:09.142',-0.065,0.115
'6:09.144',-0.075,0.100
'6:09.147',-0.095,0.090
'6:09.150',-0.110,0.075
'6:09.153',-0.130,0.085
'6:09.156',-0.120,0.090
'6:09.158',-0.090,0.095
'6:09.161',-0.090,0.085
'6:09.164',-0.085,0.075
'6:09.167',-0.090,0.075
'6:09.169',-0.095,0.085
'6:09.172',-0.085,0.110
'6:09.175',-0.085,0.110
'6:09.178',-0.085,0.095
'6:09.181',-0.095,0.080
'6:09.183',-0.110,0.080
'6:09.186',-0.110,0.085
'6:09.189',-0.110,0.110
'6:09.192',-0.090,0.115
'6:09.194',-0.095,0.120
'6:09.197',-0.120,0.100
'6:09.200',-0.125,0.085
'6:09.203',-0.110,0.095
'6:09.206',-0.130,0.115
'6:09.208',-0.100,0.105
'6:09.211',-0.100,0.100
'6:09.214',-0.100,0.090
'6:09.217',-0.120,0.085
'6:09.219',-0.110,0.110
'6:09.222',-0.095,0.130
'6:09.225',-0.090,0.120
'6:09.228',-0.095,0.110
'6:09.231',-0.120,0.095
'6:09.233',-0.135,0.095
'6:09.236',-0.130,0.105
'6:09.239',-0.125,0.125
'6:09.242',-0.125,0.125
'6:09.244',-0.105,0.110
'6:09.247',-0.130,0.095
'6:09.250',-0.130,0.100
'6:09.253',-0.130,0.100
'6:09.256',-0.120,0.110
'6:09.258',-0.105,0.115
'6:09.261',-0.105,0.100
'6:09.264',-0.105,0.085
'6:09.267',-0.125,0.075
'6:09.269',-0.120,0.105
'6:09.272',-0.120,0.120
'6:09.275',-0.095,0.125
'6:09.278',-0.095,0.110
'6:09.281',-0.110,0.090
'6:09.283',-0.110,0.090
'6:09.286',-0.115,0.100
'6:09.289',-0.095,0.110
'6:09.292',-0.075,0.115
'6:09.294',-0.090,0.080
'6:09.297',-0.100,0.080
'6:09.300',-0.110,0.090
'6:09.303',-0.095,0.085
'6:09.306',-0.085,0.090
'6:09.308',-0.080,0.095
'6:09.311',-0.095,0.075
'6:09.314',-0.105,0.080
'6:09.317',-0.120,0.080
'6:09.319',-0.120,0.095
'6:09.322',-0.095,0.110
'6:09.325',-0.070,0.110
'6:09.328',-0.080,0.085
'6:09.331',-0.085,0.080
'6:09.333',-0.090,0.060
'6:09.336',-0.100,0.085
'6:09.339',-0.085,0.085
'6:09.342',-0.080,0.085
'6:09.344',-0.065,0.075
'6:09.347',-0.080,0.055
'6:09.350',-0.100,0.070
'6:09.353',-0.075,0.085
'6:09.356',-0.070,0.085
'6:09.358',-0.060,0.100
'6:09.361',-0.080,0.075
'6:09.364',-0.100,0.055
'6:09.367',-0.115,0.060
'6:09.369',-0.115,0.070
'6:09.372',-0.095,0.080
'6:09.375',-0.065,0.055
'6:09.378',-0.070,0.075
'6:09.381',-0.070,0.060
'6:09.383',-0.100,0.060
'6:09.386',-0.100,0.060
'6:09.389',-0.085,0.080
'6:09.392',-0.075,0.075
'6:09.394',-0.065,0.070
'6:09.397',-0.085,0.055
'6:09.400',-0.090,0.050
'6:09.403',-0.100,0.060
'6:09.406',-0.085,0.085
'6:09.408',-0.080,0.085
'6:09.411',-0.070,0.075
'6:09.414',-0.075,0.060
'6:09.417',-0.090,0.045
'6:09.419',-0.090,0.070
'6:09.422',-0.075,0.070
'6:09.425',-0.055,0.085
'6:09.428',-0.060,0.080
'6:09.431',-0.060,0.080
'6:09.433',-0.075,0.075
'6:09.436',-0.065,0.085
'6:09.439',-0.070,0.120
'6:09.442',-0.055,0.125
'6:09.444',-0.050,0.125
'6:09.447',-0.060,0.115
'6:09.450',-0.060,0.115
'6:09.453',-0.045,0.145
'6:09.456',-0.040,0.165
'6:09.458',-0.015,0.160
'6:09.461',-0.005,0.155
'6:09.464',-0.020,0.155
'6:09.467',-0.025,0.145
'6:09.469',-0.015,0.140
'6:09.472',0.005,0.135
'6:09.475',0.025,0.150
'6:09.478',0.000,0.130
'6:09.481',-0.020,0.115
'6:09.483',-0.040,0.100
'6:09.486',-0.050,0.095
'6:09.489',-0.045,0.105
'6:09.492',-0.010,0.095
'6:09.494',-0.020,0.080
'6:09.497',-0.035,0.050
'6:09.500',-0.055,0.055
'6:09.503',-0.060,0.060
'6:09.506',-0.070,0.050
'6:09.508',-0.025,0.075
'6:09.511',-0.035,0.065
'6:09.514',-0.040,0.025
'6:09.517',-0.055,0.025
'6:09.519',-0.055,0.040
'6:09.522',-0.055,0.055
'6:09.525',-0.055,0.060
'6:09.528',-0.060,0.050
'6:09.531',-0.085,0.020
'6:09.533',-0.100,0.020
'6:09.536',-0.090,0.040
'6:09.539',-0.090,0.055
'6:09.542',-0.075,0.060
'6:09.544',-0.065,0.045
'6:09.547',-0.100,0.020
'6:09.550',-0.105,0.025
'6:09.553',-0.085,0.030
'6:09.556',-0.075,0.040
'6:09.558',-0.055,0.035
'6:09.561',-0.070,0.025
'6:09.564',-0.075,0.025
'6:09.567',-0.090,0.010
'6:09.569',-0.085,0.025
'6:09.572',-0.070,0.030
'6:09.575',-0.060,0.045
'6:09.578',-0.065,0.010
'6:09.581',-0.065,-0.005
'6:09.583',-0.080,0.005
'6:09.586',-0.075,0.000
'6:09.589',-0.050,0.020
'6:09.592',-0.030,0.035
'6:09.594',-0.020,0.010
'6:09.597',-0.030,0.005
'6:09.600',-0.040,0.005
'6:09.603',-0.040,0.010
'6:09.606',-0.035,0.025
'6:09.608',-0.015,0.015
'6:09.611',-0.030,0.020
'6:09.614',-0.040,0.005
'6:09.617',-0.035,0.020
'6:09.619',-0.035,0.065
'6:09.622',-0.015,0.085
'6:09.625',-0.005,0.090
'6:09.628',-0.015,0.085
'6:09.631',-0.020,0.045
'6:09.633',-0.010,0.010
'6:09.636',0.020,-0.020
'6:09.639',0.130,-0.050
'6:09.642',0.235,-0.115
'6:09.644',0.335,-0.220
'6:09.647',0.405,-0.330
'6:09.650',0.450,-0.455
'6:09.653',0.545,-0.540
'6:09.656',0.635,-0.630
'6:09.658',0.740,-0.730
'6:09.661',0.850,-0.825
'6:09.664',0.990,-0.930
'6:09.667',1.140,-1.010
'6:09.669',1.320,-1.055
'6:09.672',1.520,-1.055
'6:09.675',1.715,-1.070
'6:09.678',1.880,-1.085
'6:09.681',1.990,-1.105
'6:09.683',2.050,-1.095
'6:09.686',2.075,-1.080
'6:09.689',2.065,-1.055
'6:09.692',2.010,-1.035
'6:09.694',1.845,-1.035
'6:09.697',1.535,-1.020
'6:09.700',1.165,-0.965
'6:09.703',0.865,-0.900
'6:09.706',0.695,-0.825
'6:09.708',0.635,-0.760
'6:09.711',0.610,-0.680
'6:09.714',0.595,-0.615
'6:09.717',0.590,-0.545
'6:09.719',0.570,-0.485
'6:09.722',0.540,-0.415
'6:09.725',0.520,-0.395
'6:09.728',0.470,-0.350
'6:09.731',0.420,-0.330
'6:09.733',0.395,-0.270
'6:09.736',0.355,-0.225
'6:09.739',0.340,-0.175
'6:09.742',0.320,-0.135
'6:09.744',0.275,-0.095
'6:09.747',0.230,-0.075
'6:09.750',0.165,-0.040
'6:09.753',0.130,0.010
'6:09.756',0.105,0.060
'6:09.758',0.090,0.100
'6:09.761',0.040,0.130
'6:09.764',0.000,0.135
'6:09.767',-0.055,0.160
'6:09.769',-0.110,0.195
'6:09.772',-0.110,0.230
'6:09.775',-0.125,0.240
'6:09.778',-0.160,0.240
'6:09.781',-0.190,0.235
'6:09.783',-0.205,0.255
'6:09.786',-0.195,0.280
'6:09.789',-0.185,0.295
'6:09.792',-0.180,0.315
'6:09.794',-0.185,0.300
'6:09.797',-0.225,0.300
'6:09.800',-0.220,0.310
'6:09.803',-0.235,0.325
'6:09.806',-0.225,0.350
'6:09.808',-0.215,0.365
'6:09.811',-0.215,0.350
'6:09.814',-0.230,0.340
'6:09.817',-0.250,0.350
'6:09.819',-0.255,0.375
'6:09.822',-0.245,0.400
'6:09.825',-0.245,0.400
'6:09.828',-0.250,0.390
'6:09.831',-0.250,0.375
'6:09.833',-0.265,0.395
'6:09.836',-0.265,0.430
'6:09.839',-0.245,0.445
'6:09.842',-0.230,0.465
'6:09.844',-0.265,0.470
'6:09.847',-0.265,0.465
'6:09.850',-0.280,0.470
'6:09.853',-0.280,0.490
'6:09.856',-0.285,0.530
'6:09.858',-0.280,0.535
'6:09.861',-0.280,0.555
'6:09.864',-0.295,0.550
'6:09.867',-0.330,0.555
'6:09.869',-0.320,0.600
'6:09.872',-0.305,0.620
'6:09.875',-0.310,0.640
'6:09.878',-0.310,0.655
'6:09.881',-0.330,0.660
'6:09.883',-0.370,0.675
'6:09.886',-0.385,0.710
'6:09.889',-0.380,0.745
'6:09.892',-0.350,0.750
'6:09.894',-0.355,0.750
'6:09.897',-0.385,0.740
'6:09.900',-0.395,0.745
'6:09.903',-0.430,0.775
'6:09.906',-0.415,0.810
'6:09.908',-0.410,0.820
'6:09.911',-0.410,0.825
'6:09.914',-0.425,0.825
'6:09.917',-0.435,0.810
'6:09.919',-0.455,0.835
'6:09.922',-0.445,0.845
'6:09.925',-0.450,0.850
'6:09.928',-0.470,0.850
'6:09.931',-0.485,0.830
'6:09.933',-0.495,0.820
'6:09.936',-0.490,0.825
'6:09.939',-0.475,0.835
'6:09.942',-0.455,0.825
'6:09.944',-0.455,0.785
'6:09.947',-0.465,0.770
'6:09.950',-0.480,0.740
'6:09.953',-0.465,0.735
'6:09.956',-0.445,0.725
'6:09.958',-0.425,0.710
'6:09.961',-0.405,0.670
'6:09.964',-0.405,0.630
'6:09.967',-0.420,0.585
'6:09.969',-0.400,0.570
'6:09.972',-0.365,0.550
'6:09.975',-0.335,0.535
'6:09.978',-0.305,0.500
'6:09.981',-0.280,0.435
'6:09.983',-0.275,0.420
'6:09.986',-0.255,0.390
'6:09.989',-0.240,0.375
'6:09.992',-0.195,0.345
'6:09.994',-0.180,0.310
'6:09.997',-0.190,0.260
'6:10.000',-0.160,0.230
'6:10.003',-0.140,0.225
'6:10.006',-0.110,0.220
'6:10.008',-0.085,0.205
'6:10.011',-0.090,0.180
'6:10.014',-0.080,0.150
'6:10.017',-0.070,0.140
'6:10.019',-0.045,0.125
'6:10.022',-0.035,0.140
'6:10.025',-0.015,0.120
'6:10.028',-0.025,0.110
'6:10.031',-0.035,0.095
'6:10.033',-0.035,0.080
'6:10.036',-0.045,0.075
'6:10.039',-0.035,0.100
'6:10.042',-0.015,0.080
'6:10.044',-0.010,0.085
'6:10.047',-0.025,0.055
'6:10.050',-0.035,0.070
'6:10.053',-0.055,0.075
'6:10.056',-0.020,0.080
'6:10.058',-0.005,0.095
'6:10.061',-0.005,0.065
'6:10.064',-0.015,0.050
'6:10.067',-0.020,0.050
'6:10.069',-0.030,0.070
'6:10.072',-0.030,0.080
'6:10.075',-0.020,0.090
'6:10.078',-0.020,0.070
'6:10.081',-0.040,0.055
'6:10.083',-0.055,0.050
'6:10.086',-0.070,0.055
'6:10.089',-0.070,0.065
'6:10.092',-0.060,0.070
'6:10.094',-0.070,0.075
'6:10.097',-0.075,0.045
'6:10.100',-0.060,0.050
'6:10.103',-0.055,0.065
'6:10.106',-0.050,0.080
'6:10.108',-0.035,0.085
'6:10.111',-0.035,0.060
'6:10.114',-0.070,0.055
'6:10.117',-0.065,0.055
'6:10.119',-0.060,0.070
'6:10.122',-0.080,0.075
'6:10.125',-0.065,0.085
'6:10.128',-0.075,0.065
'6:10.131',-0.095,0.045
'6:10.133',-0.095,0.060
'6:10.136',-0.085,0.065
'6:10.139',-0.060,0.115
'6:10.142',-0.040,0.110
'6:10.144',-0.055,0.085
'6:10.147',-0.065,0.080
'6:10.150',-0.085,0.055
'6:10.153',-0.090,0.050
'6:10.156',-0.080,0.080
'6:10.158',-0.075,0.080
'6:10.161',-0.070,0.085
'6:10.164',-0.075,0.075
'6:10.167',-0.085,0.075
'6:10.169',-0.085,0.070
'6:10.172',-0.065,0.085
'6:10.175',-0.070,0.100
'6:10.178',-0.085,0.085
'6:10.181',-0.080,0.075
'6:10.183',-0.095,0.060
'6:10.186',-0.105,0.070
'6:10.189',-0.070,0.090
'6:10.192',-0.035,0.100
'6:10.194',-0.040,0.085
'6:10.197',-0.050,0.075
'6:10.200',-0.065,0.055
'6:10.203',-0.070,0.065
'6:10.206',-0.055,0.080
'6:10.208',-0.045,0.075
'6:10.211',-0.040,0.075
'6:10.214',-0.050,0.060
'6:10.217',-0.065,0.060
'6:10.219',-0.075,0.065
'6:10.222',-0.070,0.070
'6:10.225',-0.065,0.090
'6:10.228',-0.045,0.075
'6:10.231',-0.050,0.055
'6:10.233',-0.035,0.040
'6:10.236',-0.020,0.065
'6:10.239',-0.030,0.075
'6:10.242',-0.025,0.085
'6:10.244',-0.040,0.065
'6:10.247',-0.055,0.060
'6:10.250',-0.060,0.045
'6:10.253',-0.070,0.055
'6:10.256',-0.050,0.060
'6:10.258',-0.035,0.075
'6:10.261',-0.040,0.055
'6:10.264',-0.050,0.050
'6:10.267',-0.065,0.040
'6:10.269',-0.055,0.050
'6:10.272',-0.030,0.065
'6:10.275',-0.015,0.080
'6:10.278',-0.010,0.045
'6:10.281',-0.020,0.050
'6:10.283',-0.050,0.030
'6:10.286',-0.065,0.045
'6:10.289',-0.055,0.060
'6:10.292',-0.035,0.070
'6:10.294',-0.040,0.060
'6:10.297',-0.055,0.030
'6:10.300',-0.060,0.035
'6:10.303',-0.075,0.040
'6:10.306',-0.060,0.065
'6:10.308',-0.040,0.055
'6:10.311',-0.030,0.045
'6:10.314',-0.045,0.035
'6:10.317',-0.050,0.040
'6:10.319',-0.045,0.055
'6:10.322',-0.015,0.075
'6:10.325',-0.020,0.085
'6:10.328',-0.020,0.090
'6:10.331',-0.035,0.060
'6:10.333',-0.065,0.055
'6:10.336',-0.065,0.070
'6:10.339',-0.055,0.100
'6:10.342',-0.020,0.115
'6:10.344',-0.005,0.115
'6:10.347',-0.005,0.105
'6:10.350',-0.025,0.110
'6:10.353',-0.015,0.110
'6:10.356',0.005,0.130
'6:10.358',0.035,0.150
'6:10.361',0.030,0.145
'6:10.364',0.025,0.125
'6:10.367',0.020,0.130
'6:10.369',0.025,0.150
'6:10.372',0.030,0.160
'6:10.375',0.050,0.165
'6:10.378',0.025,0.120
'6:10.381',0.020,0.110
'6:10.383',0.010,0.090
'6:10.386',-0.005,0.080
'6:10.389',-0.015,0.095
'6:10.392',-0.010,0.085
'6:10.394',-0.015,0.060
'6:10.397',-0.020,0.040
'6:10.400',-0.025,0.050
'6:10.403',-0.045,0.070
'6:10.406',-0.030,0.085
'6:10.408',-0.025,0.065
'6:10.411',-0.015,0.045
'6:10.414',-0.025,0.025
'6:10.417',-0.020,0.030
'6:10.419',-0.015,0.050
'6:10.422',-0.010,0.050
'6:10.425',-0.005,0.060
'6:10.428',-0.025,0.055
'6:10.431',-0.050,0.055
'6:10.433',-0.075,0.035
'6:10.436',-0.090,0.035
'6:10.439',-0.055,0.060
'6:10.442',-0.040,0.060
'6:10.444',-0.045,0.045
'6:10.447',-0.050,0.020
'6:10.450',-0.065,0.025
'6:10.453',-0.090,0.030
'6:10.456',-0.085,0.050
'6:10.458',-0.055,0.045
'6:10.461',-0.065,0.040
'6:10.464',-0.055,0.010
'6:10.467',-0.055,0.005
'6:10.469',-0.065,0.020
'6:10.472',-0.055,0.025
'6:10.475',-0.035,0.020
'6:10.478',-0.030,0.015
'6:10.481',-0.045,0.010
'6:10.483',-0.035,-0.010
'6:10.486',-0.020,-0.005
'6:10.489',-0.005,0.005
'6:10.492',0.005,0.005
'6:10.494',-0.010,-0.010
'6:10.497',-0.015,-0.030
'6:10.500',-0.050,-0.015
'6:10.503',-0.030,0.000
'6:10.506',-0.020,0.030
'6:10.508',0.000,0.065
'6:10.511',0.010,0.070
'6:10.514',-0.015,0.050
'6:10.517',-0.015,0.015
'6:10.519',0.010,-0.035
'6:10.522',0.105,-0.095
'6:10.525',0.245,-0.190
'6:10.528',0.360,-0.330
'6:10.531',0.455,-0.455
'6:10.533',0.525,-0.585
'6:10.536',0.625,-0.675
'6:10.539',0.730,-0.740
'6:10.542',0.830,-0.830
'6:10.544',0.935,-0.910
'6:10.547',1.080,-1.010
'6:10.550',1.245,-1.070
'6:10.553',1.435,-1.095
'6:10.556',1.635,-1.100
'6:10.558',1.830,-1.115
'6:10.561',1.965,-1.110
'6:10.564',2.015,-1.105
'6:10.567',2.025,-1.115
'6:10.569',1.930,-1.095
'6:10.572',1.745,-1.095
'6:10.575',1.470,-1.065
'6:10.578',1.150,-1.025
'6:10.581',0.915,-0.995
'6:10.583',0.755,-0.930
'6:10.586',0.665,-0.880
'6:10.589',0.620,-0.780
'6:10.592',0.625,-0.695
'6:10.594',0.625,-0.605
'6:10.597',0.605,-0.545
'6:10.600',0.570,-0.465
'6:10.603',0.525,-0.400
'6:10.606',0.500,-0.355
'6:10.608',0.470,-0.300
'6:10.611',0.425,-0.270
'6:10.614',0.365,-0.225
'6:10.617',0.305,-0.185
'6:10.619',0.275,-0.130
'6:10.622',0.245,-0.060
'6:10.625',0.215,-0.030
'6:10.628',0.175,-0.005
'6:10.631',0.135,0.015
'6:10.633',0.090,0.040
'6:10.636',0.075,0.075
'6:10.639',0.065,0.135
'6:10.642',0.055,0.165
'6:10.644',0.000,0.190
'6:10.647',-0.055,0.210
'6:10.650',-0.110,0.230
'6:10.653',-0.130,0.265
'6:10.656',-0.150,0.295
'6:10.658',-0.150,0.295
'6:10.661',-0.165,0.315
'6:10.664',-0.185,0.295
'6:10.667',-0.205,0.295
'6:10.669',-0.215,0.325
'6:10.672',-0.215,0.365
'6:10.675',-0.200,0.370
'6:10.678',-0.200,0.360
'6:10.681',-0.210,0.375
'6:10.683',-0.225,0.365
'6:10.686',-0.235,0.395
'6:10.689',-0.230,0.410
'6:10.692',-0.235,0.430
'6:10.694',-0.250,0.420
'6:10.697',-0.260,0.415
'6:10.700',-0.270,0.425
'6:10.703',-0.285,0.460
'6:10.706',-0.275,0.475
'6:10.708',-0.260,0.490
'6:10.711',-0.280,0.495
'6:10.714',-0.275,0.490
'6:10.717',-0.285,0.485
'6:10.719',-0.270,0.525
'6:10.722',-0.265,0.540
'6:10.725',-0.260,0.570
'6:10.728',-0.295,0.580
'6:10.731',-0.315,0.580
'6:10.733',-0.345,0.600
'6:10.736',-0.325,0.635
'6:10.739',-0.330,0.650
'6:10.742',-0.310,0.690
'6:10.744',-0.330,0.695
'6:10.747',-0.365,0.685
'6:10.750',-0.375,0.680
'6:10.753',-0.375,0.715
'6:10.756',-0.370,0.735
'6:10.758',-0.360,0.765
'6:10.761',-0.370,0.785
'6:10.764',-0.395,0.775
'6:10.767',-0.435,0.795
'6:10.769',-0.435,0.820
'6:10.772',-0.435,0.855
'6:10.775',-0.425,0.855
'6:10.778',-0.425,0.865
'6:10.781',-0.435,0.855
'6:10.783',-0.465,0.845
'6:10.786',-0.490,0.880
'6:10.789',-0.485,0.890
'6:10.792',-0.480,0.885
'6:10.794',-0.480,0.865
'6:10.797',-0.490,0.860
'6:10.800',-0.490,0.855
'6:10.803',-0.505,0.845
'6:10.806',-0.490,0.865
'6:10.808',-0.485,0.855
'6:10.811',-0.490,0.830
'6:10.814',-0.490,0.770
'6:10.817',-0.510,0.750
'6:10.819',-0.485,0.735
'6:10.822',-0.460,0.725
'6:10.825',-0.425,0.705
'6:10.828',-0.435,0.675
'6:10.831',-0.420,0.625
'6:10.833',-0.415,0.610
'6:10.836',-0.385,0.590
'6:10.839',-0.365,0.570
'6:10.842',-0.310,0.545
'6:10.844',-0.280,0.485
'6:10.847',-0.290,0.430
'6:10.850',-0.290,0.410
'6:10.853',-0.255,0.380
'6:10.856',-0.215,0.360
'6:10.858',-0.170,0.335
'6:10.861',-0.155,0.300
'6:10.864',-0.140,0.250
'6:10.867',-0.150,0.215
'6:10.869',-0.130,0.225
'6:10.872',-0.090,0.220
'6:10.875',-0.060,0.230
'6:10.878',-0.040,0.195
'6:10.881',-0.055,0.170
'6:10.883',-0.055,0.150
'6:10.886',-0.055,0.135
'6:10.889',-0.050,0.140
'6:10.892',-0.035,0.140
'6:10.894',-0.045,0.125
'6:10.897',-0.045,0.115
'6:10.900',-0.060,0.110
'6:10.903',-0.055,0.115
'6:10.906',-0.055,0.120
'6:10.908',-0.045,0.130
'6:10.911',-0.045,0.100
'6:10.914',-0.060,0.105
'6:10.917',-0.085,0.110
'6:10.919',-0.085,0.105
'6:10.922',-0.030,0.130
'6:10.925',-0.015,0.125
'6:10.928',-0.035,0.115
'6:10.931',-0.060,0.100
'6:10.933',-0.075,0.060
'6:10.936',-0.075,0.100
'6:10.939',-0.055,0.110
'6:10.942',-0.035,0.115
'6:10.944',-0.035,0.110
'6:10.947',-0.035,0.100
'6:10.950',-0.075,0.105
'6:10.953',-0.080,0.110
'6:10.956',-0.085,0.125
'6:10.958',-0.065,0.115
'6:10.961',-0.070,0.110
'6:10.964',-0.065,0.105
'6:10.967',-0.070,0.120
'6:10.969',-0.060,0.135
'6:10.972',-0.045,0.150
'6:10.975',-0.065,0.150
'6:10.978',-0.060,0.140
'6:10.981',-0.090,0.120
'6:10.983',-0.120,0.130
'6:10.986',-0.115,0.140
'6:10.989',-0.100,0.160
'6:10.992',-0.075,0.145
'6:10.994',-0.085,0.145
'6:10.997',-0.095,0.125
'6:11.000',-0.120,0.120
'6:11.003',-0.100,0.140
'6:11.006',-0.075,0.160
'6:11.008',-0.065,0.145
'6:11.011',-0.075,0.140
'6:11.014',-0.080,0.145
'6:11.017',-0.120,0.135
'6:11.019',-0.110,0.120
'6:11.022',-0.115,0.155
'6:11.025',-0.080,0.155
'6:11.028',-0.075,0.160
'6:11.031',-0.080,0.145
'6:11.033',-0.095,0.125
'6:11.036',-0.100,0.140
'6:11.039',-0.095,0.170
'6:11.042',-0.080,0.165
'6:11.044',-0.095,0.135
'6:11.047',-0.105,0.125
'6:11.050',-0.110,0.120
'6:11.053',-0.110,0.140
'6:11.056',-0.095,0.135
'6:11.058',-0.070,0.160
'6:11.061',-0.090,0.150
'6:11.064',-0.090,0.130
'6:11.067',-0.100,0.125
'6:11.069',-0.120,0.135
'6:11.072',-0.095,0.145
'6:11.075',-0.075,0.155
'6:11.078',-0.080,0.145
'6:11.081',-0.095,0.120
'6:11.083',-0.110,0.105
'6:11.086',-0.110,0.120
'6:11.089',-0.080,0.140
'6:11.092',-0.055,0.140
'6:11.094',-0.065,0.150
'6:11.097',-0.075,0.120
'6:11.100',-0.080,0.130
'6:11.103',-0.090,0.130
'6:11.106',-0.080,0.135
'6:11.108',-0.075,0.150
'6:11.111',-0.065,0.125
'6:11.114',-0.080,0.125
'6:11.117',-0.070,0.130
'6:11.119',-0.075,0.125
'6:11.122',-0.065,0.140
'6:11.125',-0.070,0.130
'6:11.128',-0.080,0.120
'6:11.131',-0.080,0.095
'6:11.133',-0.075,0.085
'6:11.136',-0.080,0.110
'6:11.139',-0.085,0.130
'6:11.142',-0.080,0.135
'6:11.144',-0.080,0.115
'6:11.147',-0.085,0.105
'6:11.150',-0.095,0.105
'6:11.153',-0.070,0.100
'6:11.156',-0.055,0.135
'6:11.158',-0.040,0.130
'6:11.161',-0.045,0.120
'6:11.164',-0.080,0.105
'6:11.167',-0.090,0.120
'6:11.169',-0.095,0.135
'6:11.172',-0.070,0.135
'6:11.175',-0.050,0.160
'6:11.178',-0.050,0.150
'6:11.181',-0.065,0.145
'6:11.183',-0.055,0.145
'6:11.186',-0.070,0.165
'6:11.189',-0.055,0.180
'6:11.192',-0.045,0.190
'6:11.194',-0.035,0.195
'6:11.197',-0.045,0.180
'6:11.200',-0.040,0.180
'6:11.203',-0.065,0.200
'6:11.206',-0.035,0.220
'6:11.208',-0.025,0.225
'6:11.211',-0.020,0.215
'6:11.214',-0.010,0.210
'6:11.217',-0.025,0.210
'6:11.219',-0.005,0.215
'6:11.222',0.005,0.240
'6:11.225',0.015,0.230
'6:11.228',0.000,0.210
'6:11.231',-0.010,0.195
'6:11.233',-0.035,0.195
'6:11.236',-0.040,0.190
'6:11.239',-0.030,0.185
'6:11.242',-0.005,0.170
'6:11.244',-0.010,0.155
'6:11.247',-0.020,0.135
'6:11.250',-0.040,0.120
'6:11.253',-0.070,0.135
'6:11.256',-0.055,0.145
'6:11.258',-0.025,0.140
'6:11.261',-0.020,0.130
'6:11.264',-0.035,0.110
'6:11.267',-0.050,0.120
'6:11.269',-0.075,0.130
'6:11.272',-0.060,0.145
'6:11.275',-0.070,0.125
'6:11.278',-0.080,0.135
'6:11.281',-0.095,0.120
'6:11.283',-0.090,0.115
'6:11.286',-0.080,0.135
'6:11.289',-0.090,0.150
'6:11.292',-0.085,0.145
'6:11.294',-0.085,0.120
'6:11.297',-0.100,0.100
'6:11.300',-0.105,0.100
'6:11.303',-0.095,0.110
'6:11.306',-0.090,0.120
'6:11.308',-0.080,0.120
'6:11.311',-0.070,0.105
'6:11.314',-0.080,0.080
'6:11.317',-0.085,0.065
'6:11.319',-0.070,0.095
'6:11.322',-0.045,0.115
'6:11.325',-0.020,0.130
'6:11.328',-0.025,0.105
'6:11.331',-0.060,0.110
'6:11.333',-0.045,0.105
'6:11.336',-0.030,0.105
'6:11.339',-0.020,0.140
'6:11.342',-0.005,0.155
'6:11.344',0.005,0.160
'6:11.347',0.005,0.175
'6:11.350',-0.005,0.185
'6:11.353',-0.020,0.175
'6:11.356',0.010,0.150
'6:11.358',0.090,0.065
'6:11.361',0.225,-0.050
'6:11.364',0.370,-0.155
'6:11.367',0.470,-0.270
'6:11.369',0.570,-0.370
'6:11.372',0.705,-0.460
'6:11.375',0.855,-0.545
'6:11.378',1.020,-0.655
'6:11.381',1.195,-0.755
'6:11.383',1.350,-0.840
'6:11.386',1.520,-0.885
'6:11.389',1.695,-0.920
'6:11.392',1.905,-0.965
'6:11.394',2.100,-1.015
'6:11.397',2.180,-1.060
'6:11.400',2.145,-1.065
'6:11.403',2.020,-1.045
'6:11.406',1.760,-1.025
'6:11.408',1.380,-1.010
'6:11.411',0.985,-0.965
'6:11.414',0.675,-0.925
'6:11.417',0.520,-0.885
'6:11.419',0.475,-0.795
'6:11.422',0.485,-0.690
'6:11.425',0.505,-0.570
'6:11.428',0.480,-0.470
'6:11.431',0.425,-0.385
'6:11.433',0.360,-0.320
'6:11.436',0.320,-0.265
'6:11.439',0.260,-0.175
'6:11.442',0.225,-0.100
'6:11.444',0.185,-0.030
'6:11.447',0.140,-0.010
'6:11.450',0.090,0.030
'6:11.453',0.070,0.080
'6:11.456',0.060,0.140
'6:11.458',0.055,0.200
'6:11.461',0.015,0.235
'6:11.464',-0.050,0.270
'6:11.467',-0.115,0.290
'6:11.469',-0.140,0.345
'6:11.472',-0.145,0.375
'6:11.475',-0.150,0.400
'6:11.478',-0.165,0.420
'6:11.481',-0.180,0.420
'6:11.483',-0.210,0.415
'6:11.486',-0.230,0.420
'6:11.489',-0.235,0.465
'6:11.492',-0.220,0.505
'6:11.494',-0.205,0.505
'6:11.497',-0.215,0.495
'6:11.500',-0.230,0.495
'6:11.503',-0.250,0.490
'6:11.506',-0.250,0.520
'6:11.508',-0.210,0.545
'6:11.511',-0.205,0.565
'6:11.514',-0.245,0.550
'6:11.517',-0.255,0.555
'6:11.519',-0.265,0.580
'6:11.522',-0.275,0.620
'6:11.525',-0.245,0.640
'6:11.528',-0.240,0.630
'6:11.531',-0.275,0.630
'6:11.533',-0.300,0.620
'6:11.536',-0.315,0.655
'6:11.539',-0.325,0.700
'6:11.542',-0.295,0.715
'6:11.544',-0.270,0.715
'6:11.547',-0.280,0.705
'6:11.550',-0.315,0.735
'6:11.553',-0.345,0.775
'6:11.556',-0.340,0.805
'6:11.558',-0.330,0.825
'6:11.561',-0.355,0.820
'6:11.564',-0.360,0.830
'6:11.567',-0.390,0.845
'6:11.569',-0.400,0.880
'6:11.572',-0.390,0.910
'6:11.575',-0.375,0.920
'6:11.578',-0.370,0.910
'6:11.581',-0.400,0.925
'6:11.583',-0.435,0.955
'6:11.586',-0.445,0.985
'6:11.589',-0.430,1.005
'6:11.592',-0.410,1.005
'6:11.594',-0.415,0.995
'6:11.597',-0.425,0.970
'6:11.600',-0.455,1.000
'6:11.603',-0.485,1.020
'6:11.606',-0.480,1.005
'6:11.608',-0.460,1.005
'6:11.611',-0.465,0.995
'6:11.614',-0.460,0.955
'6:11.617',-0.455,0.940
'6:11.619',-0.445,0.925
'6:11.622',-0.440,0.930
'6:11.625',-0.435,0.910
'6:11.628',-0.430,0.880
'6:11.631',-0.435,0.840
'6:11.633',-0.415,0.815
'6:11.636',-0.385,0.775
'6:11.639',-0.365,0.745
'6:11.642',-0.350,0.725
'6:11.644',-0.325,0.705
'6:11.647',-0.300,0.650
'6:11.650',-0.305,0.615
'6:11.653',-0.290,0.575
'6:11.656',-0.250,0.585
'6:11.658',-0.210,0.560
'6:11.661',-0.190,0.515
'6:11.664',-0.185,0.455
'6:11.667',-0.195,0.405
'6:11.669',-0.150,0.395
'6:11.672',-0.100,0.390
'6:11.675',-0.075,0.395
'6:11.678',-0.070,0.375
'6:11.681',-0.060,0.340
'6:11.683',-0.065,0.320
'6:11.686',-0.045,0.295
'6:11.689',-0.030,0.285
'6:11.692',-0.040,0.280
'6:11.694',-0.040,0.280
'6:11.697',-0.040,0.250
'6:11.700',-0.015,0.245
'6:11.703',-0.015,0.260
'6:11.706',0.000,0.270
'6:11.708',-0.010,0.250
'6:11.711',-0.025,0.225
'6:11.714',-0.055,0.210
'6:11.717',-0.055,0.200
'6:11.719',-0.040,0.235
'6:11.722',-0.010,0.250
'6:11.725',0.005,0.240
'6:11.728',-0.005,0.215
'6:11.731',-0.020,0.200
'6:11.733',-0.025,0.200
'6:11.736',-0.025,0.210
'6:11.739',-0.040,0.215
'6:11.742',-0.025,0.220
'6:11.744',-0.020,0.210
'6:11.747',-0.005,0.180
'6:11.750',-0.025,0.195
'6:11.753',-0.035,0.200
'6:11.756',-0.045,0.235
'6:11.758',-0.025,0.235
'6:11.761',-0.020,0.225
'6:11.764',-0.015,0.200
'6:11.767',-0.030,0.205
'6:11.769',-0.040,0.210
'6:11.772',-0.045,0.215
'6:11.775',-0.035,0.225
'6:11.778',-0.010,0.230
'6:11.781',0.000,0.225
'6:11.783',-0.015,0.215
'6:11.786',-0.050,0.210
'6:11.789',-0.085,0.235
'6:11.792',-0.085,0.235
'6:11.794',-0.065,0.210
'6:11.797',-0.040,0.195
'6:11.800',-0.045,0.205
'6:11.803',-0.045,0.235
'6:11.806',-0.015,0.235
'6:11.808',-0.010,0.220
'6:11.811',-0.020,0.215
'6:11.814',-0.030,0.230
'6:11.817',-0.060,0.225
'6:11.819',-0.065,0.240
'6:11.822',-0.045,0.260
'6:11.825',0.000,0.255
'6:11.828',0.030,0.215
'6:11.831',0.025,0.205
'6:11.833',0.010,0.195
'6:11.836',-0.015,0.200
'6:11.839',-0.045,0.210
'6:11.842',-0.035,0.240
'6:11.844',-0.040,0.200
'6:11.847',-0.015,0.205
'6:11.850',-0.020,0.185
'6:11.853',-0.005,0.185
'6:11.856',0.010,0.235
'6:11.858',0.015,0.240
'6:11.861',0.005,0.230
'6:11.864',-0.050,0.195
'6:11.867',-0.070,0.180
'6:11.869',-0.040,0.195
'6:11.872',0.015,0.200
'6:11.875',0.040,0.195
'6:11.878',0.005,0.195
'6:11.881',-0.055,0.195
'6:11.883',-0.050,0.180
'6:11.886',-0.030,0.185
'6:11.889',-0.010,0.175
'6:11.892',-0.010,0.165
'6:11.894',-0.015,0.165
'6:11.897',-0.005,0.180
'6:11.900',0.015,0.180
'6:11.903',-0.015,0.180
'6:11.906',-0.080,0.195
'6:11.908',-0.085,0.185
'6:11.911',-0.020,0.180
'6:11.914',0.010,0.155
'6:11.917',-0.005,0.140
'6:11.919',-0.045,0.150
'6:11.922',-0.045,0.185
'6:11.925',0.010,0.195
'6:11.928',0.060,0.190
'6:11.931',0.040,0.145
'6:11.933',-0.020,0.135
'6:11.936',-0.070,0.145
'6:11.939',-0.065,0.145
'6:11.942',-0.005,0.165
'6:11.944',0.030,0.185
'6:11.947',0.015,0.185
'6:11.950',-0.005,0.135
'6:11.953',-0.005,0.125
'6:11.956',0.015,0.150
'6:11.958',0.030,0.155
'6:11.961',0.025,0.145
'6:11.964',0.010,0.145
'6:11.967',-0.005,0.150
'6:11.969',0.025,0.180
'6:11.972',0.065,0.170
'6:11.975',0.030,0.190
'6:11.978',-0.015,0.200
'6:11.981',-0.050,0.190
'6:11.983',-0.040,0.195
'6:11.986',-0.020,0.235
'6:11.989',0.010,0.255
'6:11.992',0.045,0.265
'6:11.994',0.055,0.265
'6:11.997',0.020,0.240
'6:12.000',-0.015,0.220
'6:12.003',-0.010,0.205
'6:12.006',0.045,0.210
'6:12.008',0.105,0.220
'6:12.011',0.120,0.240
'6:12.014',0.090,0.235
'6:12.017',0.090,0.225
'6:12.019',0.065,0.220
'6:12.022',0.050,0.220
'6:12.025',0.020,0.220
'6:12.028',0.030,0.210
'6:12.031',0.060,0.175
'6:12.033',0.080,0.155
'6:12.036',0.055,0.150
'6:12.039',0.010,0.190
'6:12.042',0.020,0.215
'6:12.044',0.050,0.185
'6:12.047',0.075,0.140
'6:12.050',0.085,0.115
'6:12.053',0.095,0.105
'6:12.056',0.060,0.145
'6:12.058',0.035,0.140
'6:12.061',-0.005,0.150
'6:12.064',-0.050,0.145
'6:12.067',-0.070,0.125
'6:12.069',-0.060,0.145
'6:12.072',0.020,0.155
'6:12.075',0.040,0.175
'6:12.078',0.015,0.160
'6:12.081',-0.020,0.135
'6:12.083',-0.020,0.130
'6:12.086',0.005,0.110
'6:12.089',0.055,0.110
'6:12.092',0.095,0.110
'6:12.094',0.060,0.105
'6:12.097',-0.005,0.110
'6:12.100',-0.050,0.115
'6:12.103',-0.050,0.120
'6:12.106',-0.020,0.105
'6:12.108',0.015,0.085
'6:12.111',0.035,0.075
'6:12.114',0.050,0.080
'6:12.117',0.055,0.085
'6:12.119',0.035,0.135
'6:12.122',0.040,0.150
'6:12.125',0.040,0.140
'6:12.128',0.050,0.135
'6:12.131',0.025,0.125
'6:12.133',0.020,0.120
'6:12.136',0.040,0.135
'6:12.139',0.045,0.130
'6:12.142',0.095,0.080
'6:12.144',0.215,0.000
'6:12.147',0.375,-0.105
'6:12.150',0.520,-0.200
'6:12.153',0.660,-0.285
'6:12.156',0.805,-0.375
'6:12.158',0.935,-0.465
'6:12.161',1.080,-0.555
'6:12.164',1.280,-0.635
'6:12.167',1.545,-0.710
'6:12.169',1.775,-0.745
'6:12.172',1.935,-0.750
'6:12.175',2.060,-0.745
'6:12.178',2.175,-0.785
'6:12.181',2.260,-0.850
'6:12.183',2.290,-0.890
'6:12.186',2.280,-0.860
'6:12.189',2.165,-0.860
'6:12.192',1.840,-0.870
'6:12.194',1.355,-0.870
'6:12.197',0.860,-0.840
'6:12.200',0.515,-0.775
'6:12.203',0.330,-0.720
'6:12.206',0.260,-0.675
'6:12.208',0.270,-0.625
'6:12.211',0.265,-0.575
'6:12.214',0.240,-0.470
'6:12.217',0.245,-0.350
'6:12.219',0.240,-0.220
'6:12.222',0.220,-0.135
'6:12.225',0.145,-0.050
'6:12.228',0.070,0.010
'6:12.231',0.035,0.090
'6:12.233',0.025,0.150
'6:12.236',-0.030,0.240
'6:12.239',-0.105,0.305
'6:12.242',-0.130,0.395
'6:12.244',-0.145,0.490
'6:12.247',-0.180,0.585
'6:12.250',-0.235,0.650
'6:12.253',-0.280,0.745
'6:12.256',-0.335,0.820
'6:12.258',-0.390,0.835
'6:12.261',-0.460,0.845
'6:12.264',-0.480,0.855
'6:12.267',-0.470,0.895
'6:12.269',-0.445,0.995
'6:12.272',-0.485,1.100
'6:12.275',-0.590,1.075
'6:12.278',-0.720,0.970
'6:12.281',-0.715,0.870
'6:12.283',-0.580,0.800
'6:12.286',-0.490,0.780
'6:12.289',-0.490,0.845
'6:12.292',-0.430,0.890
'6:12.294',-0.255,0.735
'6:12.297',-0.120,0.535
'6:12.300',-0.090,0.545
'6:12.303',-0.155,0.725
'6:12.306',-0.195,0.815
'6:12.308',-0.150,0.835
'6:12.311',-0.110,0.865
'6:12.314',-0.155,0.945
'6:12.317',-0.320,0.975
'6:12.319',-0.470,0.880
'6:12.322',-0.435,0.720
'6:12.325',-0.220,0.620
'6:12.328',-0.075,0.635
'6:12.331',-0.145,0.790
'6:12.333',-0.260,0.945
'6:12.336',-0.230,1.015
'6:12.339',-0.175,0.960
'6:12.342',-0.205,0.815
'6:12.344',-0.305,0.705
'6:12.347',-0.340,0.700
'6:12.350',-0.315,0.775
'6:12.353',-0.195,0.880
'6:12.356',-0.180,1.000
'6:12.358',-0.300,1.065
'6:12.361',-0.430,1.005
'6:12.364',-0.445,0.935
'6:12.367',-0.345,0.880
'6:12.369',-0.275,0.850
'6:12.372',-0.325,0.830
'6:12.375',-0.395,0.860
'6:12.378',-0.465,0.880
'6:12.381',-0.480,0.890
'6:12.383',-0.475,0.830
'6:12.386',-0.405,0.800
'6:12.389',-0.350,0.860
'6:12.392',-0.295,0.905
'6:12.394',-0.260,0.885
'6:12.397',-0.270,0.780
'6:12.400',-0.280,0.765
'6:12.403',-0.225,0.870
'6:12.406',-0.180,0.935
'6:12.408',-0.185,0.890
'6:12.411',-0.265,0.800
'6:12.414',-0.365,0.730
'6:12.417',-0.390,0.710
'6:12.419',-0.300,0.735
'6:12.422',-0.230,0.705
'6:12.425',-0.230,0.650
'6:12.428',-0.275,0.590
'6:12.431',-0.300,0.575
'6:12.433',-0.280,0.555
'6:12.436',-0.220,0.605
'6:12.439',-0.190,0.690
'6:12.442',-0.205,0.715
'6:12.444',-0.305,0.620
'6:12.447',-0.365,0.505
'6:12.450',-0.245,0.415
'6:12.453',-0.020,0.360
'6:12.456',0.060,0.340
'6:12.458',-0.040,0.330
'6:12.461',-0.140,0.325
'6:12.464',-0.130,0.295
'6:12.467',-0.115,0.245
'6:12.469',-0.105,0.210
'6:12.472',-0.055,0.235
'6:12.475',0.005,0.250
'6:12.478',0.010,0.235
'6:12.481',-0.005,0.205
'6:12.483',-0.010,0.165
'6:12.486',-0.010,0.200
'6:12.489',0.000,0.225
'6:12.492',0.005,0.245
'6:12.494',-0.030,0.230
'6:12.497',-0.060,0.135
'6:12.500',-0.100,0.045
'6:12.503',-0.120,0.050
'6:12.506',-0.115,0.085
'6:12.508',-0.085,0.115
'6:12.511',-0.040,0.090
'6:12.514',-0.015,0.085
'6:12.517',-0.020,0.105
'6:12.519',-0.045,0.125
'6:12.522',-0.055,0.150
'6:12.525',-0.020,0.155
'6:12.528',0.040,0.140
'6:12.531',0.085,0.135
'6:12.533',0.120,0.155
'6:12.536',0.195,0.195
'6:12.539',0.290,0.250
'6:12.542',0.435,0.300
'6:12.544',0.560,0.340
'6:12.547',0.710,0.390
'6:12.550',0.845,0.440
'6:12.553',0.975,0.505
'6:12.556',1.120,0.565
'6:12.558',1.270,0.600
'6:12.561',1.385,0.630
'6:12.564',1.470,0.665
'6:12.567',1.560,0.710
'6:12.569',1.660,0.765
'6:12.572',1.750,0.820
'6:12.575',1.720,0.860
'6:12.578',1.540,0.895
'6:12.581',1.220,0.920
'6:12.583',0.845,0.935
'6:12.586',0.485,0.975
'6:12.589',0.100,0.995
'6:12.592',-0.280,1.010
'6:12.594',-0.645,0.950
'6:12.597',-0.945,0.915
'6:12.600',-1.205,0.885
'6:12.603',-1.410,0.870
'6:12.606',-1.555,0.855
'6:12.608',-1.660,0.845
'6:12.611',-1.750,0.815
'6:12.614',-1.805,0.770
'6:12.617',-1.865,0.720
'6:12.619',-1.905,0.700
'6:12.622',-1.930,0.680
'6:12.625',-1.945,0.680
'6:12.628',-1.935,0.655
'6:12.631',-1.920,0.640
'6:12.633',-1.875,0.640
'6:12.636',-1.830,0.635
'6:12.639',-1.765,0.620
'6:12.642',-1.705,0.595
'6:12.644',-1.640,0.570
'6:12.647',-1.570,0.535
'6:12.650',-1.495,0.515
'6:12.653',-1.420,0.500
'6:12.656',-1.340,0.505
'6:12.658',-1.210,0.530
'6:12.661',-1.090,0.520
'6:12.664',-0.975,0.530
'6:12.667',-0.910,0.525
'6:12.669',-0.820,0.565
'6:12.672',-0.755,0.585
'6:12.675',-0.690,0.570
'6:12.678',-0.645,0.545
'6:12.681',-0.615,0.475
'6:12.683',-0.630,0.445
'6:12.686',-0.615,0.400
'6:12.689',-0.580,0.370
'6:12.692',-0.520,0.320
'6:12.694',-0.455,0.265
'6:12.697',-0.420,0.210
'6:12.700',-0.380,0.135
'6:12.703',-0.340,0.120
'6:12.706',-0.290,0.090
'6:12.708',-0.240,0.065
'6:12.711',-0.195,0.030
'6:12.714',-0.180,-0.025
'6:12.717',-0.160,-0.065
'6:12.719',-0.150,-0.085
'6:12.722',-0.115,-0.090
'6:12.725',-0.060,-0.095
'6:12.728',-0.045,-0.125
'6:12.731',-0.025,-0.170
'6:12.733',0.005,-0.200
'6:12.736',0.025,-0.195
'6:12.739',0.055,-0.200
'6:12.742',0.085,-0.200
'6:12.744',0.095,-0.215
'6:12.747',0.105,-0.245
'6:12.750',0.105,-0.255
'6:12.753',0.110,-0.260
'6:12.756',0.145,-0.265
'6:12.758',0.195,-0.275
'6:12.761',0.230,-0.285
'6:12.764',0.260,-0.320
'6:12.767',0.280,-0.350
'6:12.769',0.310,-0.330
'6:12.772',0.335,-0.330
'6:12.775',0.380,-0.340
'6:12.778',0.420,-0.355
'6:12.781',0.450,-0.360
'6:12.783',0.475,-0.360
'6:12.786',0.490,-0.375
'6:12.789',0.505,-0.390
'6:12.792',0.545,-0.400
'6:12.794',0.565,-0.425
'6:12.797',0.590,-0.445
'6:12.800',0.610,-0.450
'6:12.803',0.660,-0.455
'6:12.806',0.710,-0.460
'6:12.808',0.770,-0.455
'6:12.811',0.800,-0.480
'6:12.814',0.830,-0.500
'6:12.817',0.835,-0.520
'6:12.819',0.870,-0.510
'6:12.822',0.920,-0.510
'6:12.825',0.965,-0.505
'6:12.828',0.985,-0.505
'6:12.831',1.025,-0.515
'6:12.833',1.045,-0.540
'6:12.836',1.075,-0.515
'6:12.839',1.105,-0.510
'6:12.842',1.140,-0.490
'6:12.844',1.140,-0.510
'6:12.847',1.135,-0.520
'6:12.850',1.145,-0.520
'6:12.853',1.170,-0.510
'6:12.856',1.205,-0.490
'6:12.858',1.240,-0.465
'6:12.861',1.265,-0.475
'6:12.864',1.270,-0.480
'6:12.867',1.270,-0.475
'6:12.869',1.295,-0.465
'6:12.872',1.335,-0.440
'6:12.875',1.360,-0.420
'6:12.878',1.360,-0.410
'6:12.881',1.345,-0.405
'6:12.883',1.315,-0.395
'6:12.886',1.315,-0.365
'6:12.889',1.325,-0.335
'6:12.892',1.330,-0.315
'6:12.894',1.315,-0.300
'6:12.897',1.275,-0.300
'6:12.900',1.250,-0.290
'6:12.903',1.225,-0.240
'6:12.906',1.205,-0.215
'6:12.908',1.180,-0.165
'6:12.911',1.120,-0.145
'6:12.914',1.090,-0.150
'6:12.917',1.050,-0.155
'6:12.919',1.025,-0.120
'6:12.922',1.005,-0.080
'6:12.925',0.970,-0.040
'6:12.928',0.905,-0.025
'6:12.931',0.840,-0.035
'6:12.933',0.775,-0.025
'6:12.936',0.745,-0.005
'6:12.939',0.740,0.035
'6:12.942',0.720,0.050
'6:12.944',0.675,0.075
'6:12.947',0.585,0.060
'6:12.950',0.525,0.100
'6:12.953',0.490,0.125
'6:12.956',0.470,0.165
'6:12.958',0.435,0.185
'6:12.961',0.410,0.185
'6:12.964',0.365,0.180
'6:12.967',0.320,0.200
'6:12.969',0.300,0.210
'6:12.972',0.290,0.220
'6:12.975',0.250,0.205
'6:12.978',0.185,0.210
'6:12.981',0.135,0.210
'6:12.983',0.115,0.230
'6:12.986',0.115,0.210
'6:12.989',0.115,0.215
'6:12.992',0.135,0.200
'6:12.994',0.130,0.215
'6:12.997',0.100,0.215
'6:13.000',0.080,0.205
'6:13.003',0.075,0.205
'6:13.006',0.100,0.225
'6:13.008',0.105,0.250
'6:13.011',0.085,0.290
'6:13.014',0.075,0.310
'6:13.017',0.055,0.350
'6:13.019',0.045,0.365
'6:13.022',0.055,0.355
'6:13.025',0.085,0.310
'6:13.028',0.075,0.285
'6:13.031',0.030,0.290
'6:13.033',-0.020,0.285
'6:13.036',-0.040,0.265
'6:13.039',-0.030,0.225
'6:13.042',-0.010,0.215
'6:13.044',-0.015,0.205
'6:13.047',-0.050,0.205
'6:13.050',-0.060,0.215
'6:13.053',-0.050,0.220
'6:13.056',-0.030,0.255
'6:13.058',-0.015,0.255
'6:13.061',-0.020,0.235
'6:13.064',-0.020,0.190
'6:13.067',-0.010,0.210
'6:13.069',0.010,0.240
'6:13.072',0.020,0.265
'6:13.075',0.025,0.260
'6:13.078',0.010,0.250
'6:13.081',-0.015,0.215
'6:13.083',-0.060,0.250
'6:13.086',-0.065,0.275
'6:13.089',-0.035,0.305
'6:13.092',-0.030,0.340
'6:13.094',-0.025,0.350
'6:13.097',-0.055,0.310
'6:13.100',-0.065,0.280
'6:13.103',-0.050,0.235
'6:13.106',-0.040,0.250
'6:13.108',0.010,0.225
'6:13.111',0.005,0.235
'6:13.114',-0.005,0.230
'6:13.117',-0.040,0.235
'6:13.119',-0.070,0.250
'6:13.122',-0.060,0.265
'6:13.125',-0.015,0.235
'6:13.128',0.025,0.170
'6:13.131',0.050,0.150
'6:13.133',0.035,0.175
'6:13.136',0.040,0.235
'6:13.139',0.105,0.290
'6:13.142',0.115,0.305
'6:13.144',0.060,0.290
'6:13.147',-0.030,0.285
'6:13.150',-0.110,0.280
'6:13.153',-0.155,0.290
'6:13.156',-0.135,0.305
'6:13.158',-0.095,0.330
'6:13.161',-0.050,0.320
'6:13.164',-0.030,0.310
'6:13.167',-0.050,0.290
'6:13.169',-0.065,0.310
'6:13.172',-0.090,0.365
'6:13.175',-0.095,0.395
'6:13.178',-0.095,0.405
'6:13.181',-0.105,0.380
'6:13.183',-0.110,0.355
'6:13.186',-0.070,0.320
'6:13.189',-0.005,0.290
'6:13.192',0.050,0.270
'6:13.194',0.075,0.280
'6:13.197',0.085,0.300
'6:13.200',0.095,0.295
'6:13.203',0.085,0.285
'6:13.206',0.005,0.300
'6:13.208',-0.075,0.330
'6:13.211',-0.140,0.350
'6:13.214',-0.165,0.360
'6:13.217',-0.175,0.395
'6:13.219',-0.150,0.395
'6:13.222',-0.110,0.415
'6:13.225',-0.065,0.440
'6:13.228',-0.030,0.435
'6:13.231',-0.010,0.405
'6:13.233',-0.005,0.325
'6:13.236',0.015,0.295
'6:13.239',0.055,0.305
'6:13.242',0.070,0.365
'6:13.244',0.070,0.405
'6:13.247',0.070,0.400
'6:13.250',0.055,0.400
'6:13.253',0.045,0.375
'6:13.256',0.050,0.360
'6:13.258',0.060,0.325
'6:13.261',0.070,0.285
'6:13.264',0.075,0.240
'6:13.267',0.075,0.220
'6:13.269',0.035,0.240
'6:13.272',0.000,0.270
'6:13.275',-0.050,0.295
'6:13.278',-0.070,0.310
'6:13.281',-0.080,0.305
'6:13.283',-0.100,0.310
'6:13.286',-0.130,0.325
'6:13.289',-0.145,0.320
'6:13.292',-0.140,0.330
'6:13.294',-0.115,0.330
'6:13.297',-0.095,0.330
'6:13.300',-0.075,0.340
'6:13.303',-0.040,0.355
'6:13.306',0.000,0.370
'6:13.308',0.050,0.375
'6:13.311',0.065,0.375
'6:13.314',0.050,0.370
'6:13.317',0.005,0.375
'6:13.319',-0.070,0.390
'6:13.322',-0.135,0.385
'6:13.325',-0.135,0.370
'6:13.328',-0.060,0.330
'6:13.331',0.010,0.320
'6:13.333',0.070,0.345
'6:13.336',0.100,0.410
'6:13.339',0.080,0.430
'6:13.342',0.015,0.440
'6:13.344',-0.060,0.420
'6:13.347',-0.125,0.405
'6:13.350',-0.135,0.375
'6:13.353',-0.125,0.355
'6:13.356',-0.090,0.340
'6:13.358',-0.080,0.320
'6:13.361',-0.075,0.280
'6:13.364',-0.110,0.270
'6:13.367',-0.130,0.300
'6:13.369',-0.155,0.300
'6:13.372',-0.130,0.310
'6:13.375',-0.095,0.315
'6:13.378',-0.075,0.280
'6:13.381',-0.045,0.250
'6:13.383',-0.025,0.235
'6:13.386',-0.005,0.260
'6:13.389',0.040,0.310
'6:13.392',0.060,0.330
'6:13.394',0.055,0.320
'6:13.397',-0.005,0.255
'6:13.400',-0.075,0.200
'6:13.403',-0.110,0.165
'6:13.406',-0.120,0.180
'6:13.408',-0.095,0.225
'6:13.411',-0.070,0.220
'6:13.414',-0.035,0.230
'6:13.417',-0.055,0.245
'6:13.419',-0.020,0.265
'6:13.422',0.025,0.280
'6:13.425',0.060,0.295
'6:13.428',0.045,0.285
'6:13.431',-0.020,0.265
'6:13.433',-0.110,0.245
'6:13.436',-0.150,0.225
'6:13.439',-0.150,0.220
'6:13.442',-0.095,0.235
'6:13.444',-0.065,0.205
'6:13.447',-0.060,0.180
'6:13.450',-0.070,0.170
'6:13.453',-0.090,0.180
'6:13.456',-0.090,0.210
'6:13.458',-0.065,0.235
'6:13.461',-0.065,0.225
'6:13.464',-0.065,0.215
'6:13.467',-0.080,0.235
'6:13.469',-0.075,0.230
'6:13.472',-0.055,0.260
'6:13.475',-0.035,0.260
'6:13.478',-0.020,0.260
'6:13.481',-0.025,0.240
'6:13.483',-0.025,0.245
'6:13.486',-0.015,0.250
'6:13.489',-0.020,0.275
'6:13.492',0.000,0.270
'6:13.494',-0.025,0.230
'6:13.497',-0.035,0.225
'6:13.500',-0.075,0.210
'6:13.503',-0.060,0.230
'6:13.506',-0.045,0.260
'6:13.508',-0.025,0.225
'6:13.511',-0.030,0.210
'6:13.514',-0.050,0.190
'6:13.517',-0.050,0.200
'6:13.519',-0.040,0.215
'6:13.522',-0.035,0.230
'6:13.525',-0.035,0.245
'6:13.528',-0.045,0.215
'6:13.531',-0.040,0.210
'6:13.533',-0.065,0.200
'6:13.536',-0.055,0.215
'6:13.539',-0.030,0.225
'6:13.542',-0.015,0.245
'6:13.544',-0.020,0.230
'6:13.547',-0.025,0.195
'6:13.550',-0.025,0.180
'6:13.553',-0.020,0.190
'6:13.556',-0.020,0.200
'6:13.558',-0.005,0.195
'6:13.561',0.015,0.180
'6:13.564',0.010,0.165
'6:13.567',-0.025,0.155
'6:13.569',-0.010,0.160
'6:13.572',-0.025,0.170
'6:13.575',-0.005,0.160
'6:13.578',-0.010,0.145
'6:13.581',-0.015,0.125
'6:13.583',-0.025,0.135
'6:13.586',-0.015,0.145
'6:13.589',-0.020,0.160
'6:13.592',-0.030,0.150
'6:13.594',-0.025,0.125
'6:13.597',-0.040,0.120
'6:13.600',-0.040,0.115
'6:13.603',-0.035,0.125
'6:13.606',-0.030,0.160
'6:13.608',-0.010,0.145
'6:13.611',-0.010,0.135
'6:13.614',-0.030,0.140
'6:13.617',-0.055,0.125
'6:13.619',-0.045,0.125
'6:13.622',-0.055,0.145
'6:13.625',-0.035,0.150
'6:13.628',-0.025,0.140
'6:13.631',-0.040,0.130
'6:13.633',-0.040,0.125
'6:13.636',-0.050,0.130
'6:13.639',-0.040,0.125
'6:13.642',-0.030,0.140
'6:13.644',-0.030,0.130
'6:13.647',-0.015,0.120
'6:13.650',-0.040,0.110
'6:13.653',-0.055,0.135
'6:13.656',-0.040,0.150
'6:13.658',-0.015,0.175
'6:13.661',-0.010,0.170
'6:13.664',-0.025,0.160
'6:13.667',-0.040,0.165
'6:13.669',-0.040,0.170
'6:13.672',0.000,0.185
'6:13.675',0.015,0.185
'6:13.678',0.000,0.165
'6:13.681',-0.020,0.170
'6:13.683',-0.060,0.175
'6:13.686',-0.060,0.195
'6:13.689',-0.045,0.235
'6:13.692',-0.020,0.245
'6:13.694',-0.005,0.225
'6:13.697',-0.005,0.210
'6:13.700',-0.015,0.225
'6:13.703',-0.010,0.220
'6:13.706',-0.015,0.235
'6:13.708',0.000,0.245
'6:13.711',0.005,0.205
'6:13.714',0.015,0.180
'6:13.717',0.010,0.175
'6:13.719',0.030,0.200
'6:13.722',0.045,0.220
'6:13.725',0.070,0.225
'6:13.728',0.060,0.225
'6:13.731',0.050,0.215
'6:13.733',0.045,0.215
'6:13.736',0.035,0.215
'6:13.739',0.025,0.215
'6:13.742',0.020,0.215
'6:13.744',0.010,0.210
'6:13.747',0.000,0.205
'6:13.750',-0.015,0.185
'6:13.753',-0.025,0.200
'6:13.756',-0.025,0.220
'6:13.758',-0.020,0.225
'6:13.761',-0.015,0.215
'6:13.764',-0.015,0.200
'6:13.767',-0.030,0.190
'6:13.769',-0.025,0.200
'6:13.772',-0.010,0.225
'6:13.775',0.000,0.225
'6:13.778',-0.015,0.225
'6:13.781',-0.050,0.200
'6:13.783',-0.065,0.195
'6:13.786',-0.060,0.185
'6:13.789',-0.030,0.210
'6:13.792',-0.020,0.205
'6:13.794',-0.025,0.205
'6:13.797',-0.040,0.200
'6:13.800',-0.040,0.185
'6:13.803',-0.050,0.190
'6:13.806',-0.025,0.210
'6:13.808',-0.005,0.210
'6:13.811',-0.020,0.205
'6:13.814',-0.045,0.175
'6:13.817',-0.035,0.155
'6:13.819',-0.040,0.135
'6:13.822',-0.020,0.155
'6:13.825',-0.005,0.160
'6:13.828',-0.005,0.150
'6:13.831',-0.020,0.115
'6:13.833',-0.010,0.105
'6:13.836',0.005,0.125
'6:13.839',0.020,0.130
'6:13.842',0.030,0.145
'6:13.844',0.045,0.150
'6:13.847',0.035,0.155
'6:13.850',0.020,0.170
'6:13.853',0.010,0.170
'6:13.856',0.030,0.145
'6:13.858',0.060,0.075
'6:13.861',0.110,-0.040
