'Elapsed time','MLII','V1'
'hh:mm:ss.mmm','mV','mV'
'27:00.000',-0.545,0.135
'27:00.003',-0.520,0.145
'27:00.006',-0.515,0.125
'27:00.008',-0.500,0.120
'27:00.011',-0.490,0.110
'27:00.014',-0.500,0.120
'27:00.017',-0.475,0.125
'27:00.019',-0.450,0.125
'27:00.022',-0.430,0.095
'27:00.025',-0.415,0.085
'27:00.028',-0.425,0.090
'27:00.031',-0.405,0.090
'27:00.033',-0.385,0.110
'27:00.036',-0.355,0.120
'27:00.039',-0.335,0.090
'27:00.042',-0.345,0.075
'27:00.044',-0.360,0.080
'27:00.047',-0.345,0.090
'27:00.050',-0.305,0.100
'27:00.053',-0.290,0.100
'27:00.056',-0.300,0.085
'27:00.058',-0.315,0.065
'27:00.061',-0.300,0.075
'27:00.064',-0.290,0.085
'27:00.067',-0.265,0.100
'27:00.069',-0.240,0.105
'27:00.072',-0.255,0.105
'27:00.075',-0.265,0.095
'27:00.078',-0.240,0.105
'27:00.081',-0.235,0.115
'27:00.083',-0.225,0.125
'27:00.086',-0.220,0.150
'27:00.089',-0.205,0.140
'27:00.092',-0.195,0.115
'27:00.094',-0.210,0.120
'27:00.097',-0.195,0.140
'27:00.100',-0.190,0.145
'27:00.103',-0.180,0.140
'27:00.106',-0.190,0.125
'27:00.108',-0.185,0.105
'27:00.111',-0.215,0.120
'27:00.114',-0.215,0.125
'27:00.117',-0.200,0.145
'27:00.119',-0.195,0.125
'27:00.122',-0.200,0.125
'27:00.125',-0.230,0.115
'27:00.128',-0.255,0.120
'27:00.131',-0.265,0.140
'27:00.133',-0.265,0.155
'27:00.136',-0.260,0.160
'27:00.139',-0.285,0.145
'27:00.142',-0.315,0.115
'27:00.144',-0.325,0.130
'27:00.147',-0.315,0.155
'27:00.150',-0.320,0.175
'27:00.153',-0.320,0.160
'27:00.156',-0.335,0.145
'27:00.158',-0.340,0.125
'27:00.161',-0.340,0.130
'27:00.164',-0.345,0.130
'27:00.167',-0.355,0.150
'27:00.169',-0.335,0.130
'27:00.172',-0.340,0.125
'27:00.175',-0.355,0.100
'27:00.178',-0.370,0.105
'27:00.181',-0.375,0.115
'27:00.183',-0.350,0.120
'27:00.186',-0.315,0.135
'27:00.189',-0.315,0.100
'27:00.192',-0.345,0.090
'27:00.194',-0.355,0.085
'27:00.197',-0.320,0.080
'27:00.200',-0.310,0.095
'27:00.203',-0.305,0.075
'27:00.206',-0.310,0.060
'27:00.208',-0.320,0.060
'27:00.211',-0.315,0.060
'27:00.214',-0.300,0.090
'27:00.217',-0.280,0.105
'27:00.219',-0.250,0.115
'27:00.222',-0.210,0.120
'27:00.225',-0.140,0.115
'27:00.228',-0.075,0.145
'27:00.231',-0.005,0.185
'27:00.233',0.045,0.245
'27:00.236',0.070,0.315
'27:00.239',0.015,0.355
'27:00.242',-0.095,0.385
'27:00.244',-0.255,0.430
'27:00.247',-0.455,0.495
'27:00.250',-0.595,0.525
'27:00.253',-0.620,0.505
'27:00.256',-0.510,0.460
'27:00.258',-0.355,0.380
'27:00.261',-0.255,0.285
'27:00.264',-0.195,0.180
'27:00.267',-0.085,0.095
'27:00.269',0.090,0.020
'27:00.272',0.220,-0.065
'27:00.275',0.280,-0.130
'27:00.278',0.290,-0.205
'27:00.281',0.295,-0.230
'27:00.283',0.265,-0.260
'27:00.286',0.225,-0.265
'27:00.289',0.160,-0.265
'27:00.292',0.050,-0.255
'27:00.294',-0.075,-0.230
'27:00.297',-0.200,-0.175
'27:00.300',-0.285,-0.130
'27:00.303',-0.330,-0.100
'27:00.306',-0.370,-0.080
'27:00.308',-0.405,-0.065
'27:00.311',-0.420,-0.020
'27:00.314',-0.415,0.005
'27:00.317',-0.410,0.035
'27:00.319',-0.390,0.020
'27:00.322',-0.410,0.020
'27:00.325',-0.420,0.000
'27:00.328',-0.420,0.005
'27:00.331',-0.420,0.015
'27:00.333',-0.405,0.035
'27:00.336',-0.400,0.025
'27:00.339',-0.405,0.020
'27:00.342',-0.425,-0.005
'27:00.344',-0.430,0.000
'27:00.347',-0.445,0.005
'27:00.350',-0.425,0.010
'27:00.353',-0.405,0.025
'27:00.356',-0.405,0.005
'27:00.358',-0.425,-0.010
'27:00.361',-0.440,-0.010
'27:00.364',-0.435,0.010
'27:00.367',-0.415,0.020
'27:00.369',-0.400,0.010
'27:00.372',-0.415,0.005
'27:00.375',-0.420,0.005
'27:00.378',-0.420,-0.005
'27:00.381',-0.410,0.020
'27:00.383',-0.395,0.035
'27:00.386',-0.365,0.035
'27:00.389',-0.360,0.030
'27:00.392',-0.340,0.020
'27:00.394',-0.340,0.030
'27:00.397',-0.355,0.050
'27:00.400',-0.345,0.085
'27:00.403',-0.310,0.080
'27:00.406',-0.290,0.070
'27:00.408',-0.305,0.065
'27:00.411',-0.315,0.080
'27:00.414',-0.275,0.100
'27:00.417',-0.250,0.120
'27:00.419',-0.225,0.120
'27:00.422',-0.235,0.110
'27:00.425',-0.225,0.105
'27:00.428',-0.235,0.105
'27:00.431',-0.230,0.110
'27:00.433',-0.215,0.135
'27:00.436',-0.185,0.130
'27:00.439',-0.180,0.090
'27:00.442',-0.190,0.080
'27:00.444',-0.195,0.065
'27:00.447',-0.165,0.075
'27:00.450',-0.145,0.085
'27:00.453',-0.110,0.080
'27:00.456',-0.105,0.060
'27:00.458',-0.100,0.035
'27:00.461',-0.090,0.030
'27:00.464',-0.075,0.035
'27:00.467',-0.055,0.045
'27:00.469',-0.020,0.035
'27:00.472',-0.025,0.030
'27:00.475',-0.020,0.025
'27:00.478',-0.020,0.005
'27:00.481',-0.025,0.030
'27:00.483',-0.010,0.040
'27:00.486',-0.005,0.040
'27:00.489',-0.015,0.015
'27:00.492',-0.065,0.005
'27:00.494',-0.080,0.015
'27:00.497',-0.095,0.035
'27:00.500',-0.075,0.040
'27:00.503',-0.105,0.050
'27:00.506',-0.120,0.030
'27:00.508',-0.125,0.025
'27:00.511',-0.145,0.020
'27:00.514',-0.150,0.050
'27:00.517',-0.160,0.060
'27:00.519',-0.140,0.060
'27:00.522',-0.145,0.060
'27:00.525',-0.170,0.015
'27:00.528',-0.185,0.025
'27:00.531',-0.185,0.050
'27:00.533',-0.165,0.055
'27:00.536',-0.150,0.070
'27:00.539',-0.180,0.060
'27:00.542',-0.190,0.065
'27:00.544',-0.190,0.080
'27:00.547',-0.185,0.105
'27:00.550',-0.160,0.125
'27:00.553',-0.165,0.140
'27:00.556',-0.165,0.125
'27:00.558',-0.170,0.125
'27:00.561',-0.170,0.150
'27:00.564',-0.195,0.165
'27:00.567',-0.195,0.180
'27:00.569',-0.160,0.175
'27:00.572',-0.145,0.175
'27:00.575',-0.170,0.170
'27:00.578',-0.195,0.175
'27:00.581',-0.235,0.185
'27:00.583',-0.225,0.200
'27:00.586',-0.205,0.195
'27:00.589',-0.235,0.190
'27:00.592',-0.235,0.175
'27:00.594',-0.260,0.190
'27:00.597',-0.235,0.180
'27:00.600',-0.215,0.195
'27:00.603',-0.205,0.185
'27:00.606',-0.215,0.165
'27:00.608',-0.250,0.135
'27:00.611',-0.245,0.130
'27:00.614',-0.220,0.140
'27:00.617',-0.210,0.155
'27:00.619',-0.200,0.145
'27:00.622',-0.210,0.140
'27:00.625',-0.215,0.115
'27:00.628',-0.220,0.090
'27:00.631',-0.200,0.115
'27:00.633',-0.185,0.125
'27:00.636',-0.185,0.130
'27:00.639',-0.190,0.110
'27:00.642',-0.185,0.085
'27:00.644',-0.200,0.090
'27:00.647',-0.195,0.105
'27:00.650',-0.185,0.115
'27:00.653',-0.185,0.115
'27:00.656',-0.175,0.100
'27:00.658',-0.180,0.075
'27:00.661',-0.210,0.095
'27:00.664',-0.215,0.090
'27:00.667',-0.210,0.100
'27:00.669',-0.185,0.095
'27:00.672',-0.200,0.085
'27:00.675',-0.225,0.070
'27:00.678',-0.250,0.060
'27:00.681',-0.235,0.075
'27:00.683',-0.220,0.080
'27:00.686',-0.200,0.085
'27:00.689',-0.225,0.060
'27:00.692',-0.230,0.035
'27:00.694',-0.220,0.030
'27:00.697',-0.195,0.045
'27:00.700',-0.175,0.055
'27:00.703',-0.175,0.035
'27:00.706',-0.195,0.015
'27:00.708',-0.205,0.000
'27:00.711',-0.205,-0.010
'27:00.714',-0.215,0.015
'27:00.717',-0.220,0.040
'27:00.719',-0.185,0.035
'27:00.722',-0.185,0.040
'27:00.725',-0.210,0.025
'27:00.728',-0.220,0.045
'27:00.731',-0.230,0.080
'27:00.733',-0.200,0.100
'27:00.736',-0.175,0.100
'27:00.739',-0.185,0.100
'27:00.742',-0.195,0.075
'27:00.744',-0.205,0.095
'27:00.747',-0.205,0.120
'27:00.750',-0.195,0.125
'27:00.753',-0.175,0.120
'27:00.756',-0.195,0.100
'27:00.758',-0.220,0.085
'27:00.761',-0.230,0.100
'27:00.764',-0.215,0.110
'27:00.767',-0.205,0.120
'27:00.769',-0.205,0.110
'27:00.772',-0.205,0.115
'27:00.775',-0.200,0.095
'27:00.778',-0.200,0.095
'27:00.781',-0.195,0.095
'27:00.783',-0.185,0.120
'27:00.786',-0.165,0.105
'27:00.789',-0.155,0.090
'27:00.792',-0.170,0.075
'27:00.794',-0.180,0.085
'27:00.797',-0.175,0.100
'27:00.800',-0.155,0.110
'27:00.803',-0.125,0.120
'27:00.806',-0.130,0.100
'27:00.808',-0.150,0.085
'27:00.811',-0.165,0.085
'27:00.814',-0.150,0.095
'27:00.817',-0.140,0.105
'27:00.819',-0.130,0.105
'27:00.822',-0.140,0.100
'27:00.825',-0.150,0.080
'27:00.828',-0.145,0.085
'27:00.831',-0.155,0.095
'27:00.833',-0.140,0.115
'27:00.836',-0.135,0.115
'27:00.839',-0.140,0.085
'27:00.842',-0.155,0.080
'27:00.844',-0.170,0.100
'27:00.847',-0.165,0.110
'27:00.850',-0.160,0.135
'27:00.853',-0.145,0.130
'27:00.856',-0.145,0.125
'27:00.858',-0.145,0.130
'27:00.861',-0.105,0.140
'27:00.864',-0.025,0.175
'27:00.867',0.045,0.215
'27:00.869',0.090,0.245
'27:00.872',0.155,0.245
'27:00.875',0.250,0.250
'27:00.878',0.335,0.255
'27:00.881',0.385,0.275
'27:00.883',0.410,0.300
'27:00.886',0.440,0.255
'27:00.889',0.435,0.195
'27:00.892',0.435,0.115
'27:00.894',0.475,0.045
'27:00.897',0.560,-0.010
'27:00.900',0.645,-0.100
'27:00.903',0.690,-0.215
'27:00.906',0.740,-0.315
'27:00.908',0.785,-0.415
'27:00.911',0.850,-0.465
'27:00.914',0.865,-0.475
'27:00.917',0.845,-0.505
'27:00.919',0.815,-0.510
'27:00.922',0.730,-0.530
'27:00.925',0.620,-0.525
'27:00.928',0.520,-0.505
'27:00.931',0.405,-0.440
'27:00.933',0.275,-0.380
'27:00.936',0.120,-0.325
'27:00.939',-0.030,-0.280
'27:00.942',-0.150,-0.235
'27:00.944',-0.220,-0.170
'27:00.947',-0.240,-0.130
'27:00.950',-0.240,-0.070
'27:00.953',-0.230,-0.035
'27:00.956',-0.265,-0.015
'27:00.958',-0.285,-0.020
'27:00.961',-0.300,0.000
'27:00.964',-0.335,0.035
'27:00.967',-0.315,0.070
'27:00.969',-0.335,0.065
'27:00.972',-0.335,0.080
'27:00.975',-0.360,0.055
'27:00.978',-0.400,0.080
'27:00.981',-0.410,0.090
'27:00.983',-0.405,0.120
'27:00.986',-0.395,0.125
'27:00.989',-0.410,0.115
'27:00.992',-0.425,0.105
'27:00.994',-0.430,0.125
'27:00.997',-0.425,0.155
'27:01.000',-0.425,0.165
'27:01.003',-0.425,0.165
'27:01.006',-0.415,0.145
'27:01.008',-0.420,0.145
'27:01.011',-0.455,0.135
'27:01.014',-0.455,0.160
'27:01.017',-0.415,0.175
'27:01.019',-0.405,0.170
'27:01.022',-0.405,0.155
'27:01.025',-0.410,0.140
'27:01.028',-0.415,0.105
'27:01.031',-0.390,0.140
'27:01.033',-0.385,0.135
'27:01.036',-0.375,0.130
'27:01.039',-0.385,0.105
'27:01.042',-0.385,0.105
'27:01.044',-0.380,0.090
'27:01.047',-0.365,0.105
'27:01.050',-0.340,0.120
'27:01.053',-0.315,0.110
'27:01.056',-0.290,0.085
'27:01.058',-0.295,0.065
'27:01.061',-0.290,0.075
'27:01.064',-0.275,0.080
'27:01.067',-0.245,0.105
'27:01.069',-0.225,0.100
'27:01.072',-0.215,0.095
'27:01.075',-0.225,0.080
'27:01.078',-0.205,0.090
'27:01.081',-0.175,0.110
'27:01.083',-0.150,0.120
'27:01.086',-0.130,0.120
'27:01.089',-0.120,0.115
'27:01.092',-0.105,0.115
'27:01.094',-0.100,0.115
'27:01.097',-0.090,0.125
'27:01.100',-0.070,0.130
'27:01.103',-0.030,0.145
'27:01.106',-0.025,0.140
'27:01.108',-0.025,0.130
'27:01.111',-0.020,0.130
'27:01.114',-0.010,0.150
'27:01.117',0.025,0.150
'27:01.119',0.045,0.150
'27:01.122',0.045,0.145
'27:01.125',0.020,0.140
'27:01.128',0.020,0.140
'27:01.131',0.055,0.160
'27:01.133',0.070,0.195
'27:01.136',0.075,0.195
'27:01.139',0.045,0.175
'27:01.142',0.050,0.170
'27:01.144',0.030,0.180
'27:01.147',0.035,0.190
'27:01.150',0.045,0.200
'27:01.153',0.050,0.195
'27:01.156',0.030,0.195
'27:01.158',0.025,0.170
'27:01.161',-0.010,0.170
'27:01.164',-0.015,0.180
'27:01.167',-0.010,0.190
'27:01.169',-0.020,0.175
'27:01.172',-0.050,0.155
'27:01.175',-0.040,0.135
'27:01.178',-0.070,0.125
'27:01.181',-0.070,0.135
'27:01.183',-0.075,0.130
'27:01.186',-0.080,0.135
'27:01.189',-0.080,0.105
'27:01.192',-0.090,0.095
'27:01.194',-0.100,0.080
'27:01.197',-0.120,0.100
'27:01.200',-0.115,0.105
'27:01.203',-0.100,0.095
'27:01.206',-0.090,0.090
'27:01.208',-0.130,0.060
'27:01.211',-0.170,0.075
'27:01.214',-0.170,0.095
'27:01.217',-0.135,0.085
'27:01.219',-0.135,0.085
'27:01.222',-0.150,0.055
'27:01.225',-0.165,0.070
'27:01.228',-0.150,0.070
'27:01.231',-0.150,0.075
'27:01.233',-0.120,0.100
'27:01.236',-0.105,0.090
'27:01.239',-0.125,0.095
'27:01.242',-0.130,0.065
'27:01.244',-0.130,0.085
'27:01.247',-0.130,0.085
'27:01.250',-0.110,0.095
'27:01.253',-0.090,0.095
'27:01.256',-0.075,0.075
'27:01.258',-0.105,0.085
'27:01.261',-0.115,0.085
'27:01.264',-0.120,0.095
'27:01.267',-0.105,0.125
'27:01.269',-0.080,0.105
'27:01.272',-0.100,0.110
'27:01.275',-0.110,0.095
'27:01.278',-0.100,0.110
'27:01.281',-0.080,0.120
'27:01.283',-0.070,0.135
'27:01.286',-0.085,0.150
'27:01.289',-0.095,0.135
'27:01.292',-0.110,0.120
'27:01.294',-0.100,0.120
'27:01.297',-0.115,0.140
'27:01.300',-0.095,0.165
'27:01.303',-0.080,0.165
'27:01.306',-0.080,0.135
'27:01.308',-0.090,0.130
'27:01.311',-0.105,0.115
'27:01.314',-0.100,0.145
'27:01.317',-0.070,0.140
'27:01.319',-0.055,0.130
'27:01.322',-0.080,0.110
'27:01.325',-0.090,0.080
'27:01.328',-0.085,0.085
'27:01.331',-0.095,0.075
'27:01.333',-0.090,0.100
'27:01.336',-0.095,0.075
'27:01.339',-0.100,0.050
'27:01.342',-0.115,0.025
'27:01.344',-0.125,0.030
'27:01.347',-0.135,0.015
'27:01.350',-0.130,0.035
'27:01.353',-0.130,0.015
'27:01.356',-0.155,-0.005
'27:01.358',-0.170,-0.035
'27:01.361',-0.180,-0.015
'27:01.364',-0.180,-0.020
'27:01.367',-0.160,0.000
'27:01.369',-0.160,-0.005
'27:01.372',-0.185,-0.005
'27:01.375',-0.200,-0.020
'27:01.378',-0.215,-0.010
'27:01.381',-0.210,0.000
'27:01.383',-0.200,0.025
'27:01.386',-0.190,0.025
'27:01.389',-0.185,0.025
'27:01.392',-0.220,0.005
'27:01.394',-0.215,0.000
'27:01.397',-0.200,0.030
'27:01.400',-0.190,0.050
'27:01.403',-0.165,0.040
'27:01.406',-0.200,0.035
'27:01.408',-0.195,0.025
'27:01.411',-0.180,0.025
'27:01.414',-0.180,0.045
'27:01.417',-0.175,0.075
'27:01.419',-0.170,0.065
'27:01.422',-0.170,0.055
'27:01.425',-0.190,0.040
'27:01.428',-0.200,0.050
'27:01.431',-0.185,0.075
'27:01.433',-0.170,0.080
'27:01.436',-0.170,0.085
'27:01.439',-0.180,0.075
'27:01.442',-0.195,0.070
'27:01.444',-0.210,0.075
'27:01.447',-0.195,0.105
'27:01.450',-0.190,0.115
'27:01.453',-0.180,0.120
'27:01.456',-0.175,0.105
'27:01.458',-0.175,0.080
'27:01.461',-0.200,0.075
'27:01.464',-0.195,0.090
'27:01.467',-0.180,0.095
'27:01.469',-0.170,0.070
'27:01.472',-0.170,0.060
'27:01.475',-0.185,0.050
'27:01.478',-0.220,0.045
'27:01.481',-0.195,0.050
'27:01.483',-0.205,0.065
'27:01.486',-0.190,0.065
'27:01.489',-0.210,0.050
'27:01.492',-0.200,0.035
'27:01.494',-0.205,0.025
'27:01.497',-0.200,0.025
'27:01.500',-0.180,0.025
'27:01.503',-0.170,0.005
'27:01.506',-0.185,-0.025
'27:01.508',-0.205,-0.055
'27:01.511',-0.200,-0.050
'27:01.514',-0.195,-0.045
'27:01.517',-0.190,-0.025
'27:01.519',-0.185,-0.035
'27:01.522',-0.200,-0.055
'27:01.525',-0.195,-0.055
'27:01.528',-0.190,-0.055
'27:01.531',-0.190,-0.045
'27:01.533',-0.175,-0.010
'27:01.536',-0.165,-0.015
'27:01.539',-0.160,-0.030
'27:01.542',-0.180,-0.025
'27:01.544',-0.210,-0.010
'27:01.547',-0.200,0.005
'27:01.550',-0.165,0.005
'27:01.553',-0.155,0.015
'27:01.556',-0.170,0.015
'27:01.558',-0.175,0.000
'27:01.561',-0.195,0.005
'27:01.564',-0.200,0.030
'27:01.567',-0.180,0.040
'27:01.569',-0.180,0.050
'27:01.572',-0.165,0.035
'27:01.575',-0.180,0.035
'27:01.578',-0.200,0.060
'27:01.581',-0.195,0.065
'27:01.583',-0.185,0.080
'27:01.586',-0.160,0.075
'27:01.589',-0.165,0.055
'27:01.592',-0.175,0.040
'27:01.594',-0.180,0.065
'27:01.597',-0.155,0.065
'27:01.600',-0.155,0.095
'27:01.603',-0.155,0.085
'27:01.606',-0.155,0.080
'27:01.608',-0.155,0.065
'27:01.611',-0.165,0.080
'27:01.614',-0.160,0.095
'27:01.617',-0.140,0.125
'27:01.619',-0.145,0.120
'27:01.622',-0.140,0.105
'27:01.625',-0.170,0.105
'27:01.628',-0.170,0.105
'27:01.631',-0.165,0.120
'27:01.633',-0.155,0.135
'27:01.636',-0.145,0.130
'27:01.639',-0.160,0.115
'27:01.642',-0.175,0.105
'27:01.644',-0.175,0.110
'27:01.647',-0.145,0.125
'27:01.650',-0.095,0.150
'27:01.653',-0.010,0.160
'27:01.656',0.075,0.175
'27:01.658',0.110,0.190
'27:01.661',0.135,0.220
'27:01.664',0.200,0.245
'27:01.667',0.320,0.280
'27:01.669',0.440,0.280
'27:01.672',0.515,0.265
'27:01.675',0.540,0.225
'27:01.678',0.560,0.190
'27:01.681',0.610,0.120
'27:01.683',0.640,0.070
'27:01.686',0.685,0.010
'27:01.689',0.735,-0.070
'27:01.692',0.810,-0.180
'27:01.694',0.900,-0.300
'27:01.697',0.960,-0.425
'27:01.700',0.960,-0.500
'27:01.703',0.965,-0.585
'27:01.706',1.015,-0.645
'27:01.708',1.070,-0.690
'27:01.711',1.045,-0.700
'27:01.714',0.970,-0.690
'27:01.717',0.940,-0.665
'27:01.719',0.850,-0.655
'27:01.722',0.745,-0.655
'27:01.725',0.620,-0.640
'27:01.728',0.500,-0.590
'27:01.731',0.370,-0.530
'27:01.733',0.215,-0.455
'27:01.736',0.065,-0.390
'27:01.739',-0.100,-0.340
'27:01.742',-0.230,-0.305
'27:01.744',-0.325,-0.220
'27:01.747',-0.375,-0.140
'27:01.750',-0.395,-0.075
'27:01.753',-0.395,-0.055
'27:01.756',-0.410,-0.045
'27:01.758',-0.435,-0.025
'27:01.761',-0.450,-0.010
'27:01.764',-0.465,0.020
'27:01.767',-0.465,0.045
'27:01.769',-0.470,0.065
'27:01.772',-0.480,0.045
'27:01.775',-0.505,0.030
'27:01.778',-0.530,0.045
'27:01.781',-0.540,0.065
'27:01.783',-0.535,0.090
'27:01.786',-0.520,0.095
'27:01.789',-0.490,0.090
'27:01.792',-0.515,0.060
'27:01.794',-0.535,0.080
'27:01.797',-0.540,0.065
'27:01.800',-0.510,0.065
'27:01.803',-0.500,0.060
'27:01.806',-0.540,0.050
'27:01.808',-0.535,0.020
'27:01.811',-0.550,0.030
'27:01.814',-0.540,0.055
'27:01.817',-0.540,0.065
'27:01.819',-0.530,0.060
'27:01.822',-0.510,0.045
'27:01.825',-0.510,0.035
'27:01.828',-0.525,0.015
'27:01.831',-0.525,0.055
'27:01.833',-0.515,0.060
'27:01.836',-0.465,0.040
'27:01.839',-0.470,0.015
'27:01.842',-0.490,0.000
'27:01.844',-0.495,0.015
'27:01.847',-0.470,0.025
'27:01.850',-0.425,0.040
'27:01.853',-0.410,0.045
'27:01.856',-0.415,0.030
'27:01.858',-0.420,0.025
'27:01.861',-0.410,0.025
'27:01.864',-0.390,0.050
'27:01.867',-0.360,0.060
'27:01.869',-0.355,0.075
'27:01.872',-0.345,0.060
'27:01.875',-0.330,0.040
'27:01.878',-0.340,0.070
'27:01.881',-0.345,0.095
'27:01.883',-0.315,0.105
'27:01.886',-0.280,0.100
'27:01.889',-0.280,0.100
'27:01.892',-0.285,0.095
'27:01.894',-0.265,0.085
'27:01.897',-0.245,0.115
'27:01.900',-0.215,0.130
'27:01.903',-0.200,0.125
'27:01.906',-0.180,0.130
'27:01.908',-0.160,0.120
'27:01.911',-0.165,0.115
'27:01.914',-0.165,0.140
'27:01.917',-0.155,0.155
'27:01.919',-0.110,0.150
'27:01.922',-0.100,0.135
'27:01.925',-0.115,0.115
'27:01.928',-0.115,0.120
'27:01.931',-0.090,0.125
'27:01.933',-0.065,0.130
'27:01.936',-0.050,0.105
'27:01.939',-0.040,0.090
'27:01.942',-0.040,0.060
'27:01.944',-0.050,0.045
'27:01.947',-0.060,0.075
'27:01.950',-0.045,0.065
'27:01.953',-0.035,0.050
'27:01.956',-0.045,0.055
'27:01.958',-0.065,0.030
'27:01.961',-0.095,0.030
'27:01.964',-0.105,0.050
'27:01.967',-0.095,0.040
'27:01.969',-0.115,0.050
'27:01.972',-0.145,0.030
'27:01.975',-0.165,0.015
'27:01.978',-0.170,0.020
'27:01.981',-0.175,0.040
'27:01.983',-0.170,0.065
'27:01.986',-0.175,0.045
'27:01.989',-0.180,0.050
'27:01.992',-0.195,0.035
'27:01.994',-0.230,0.050
'27:01.997',-0.220,0.065
'27:02.000',-0.210,0.085
'27:02.003',-0.200,0.090
'27:02.006',-0.230,0.075
'27:02.008',-0.255,0.075
'27:02.011',-0.270,0.085
'27:02.014',-0.235,0.110
'27:02.017',-0.235,0.130
'27:02.019',-0.245,0.125
'27:02.022',-0.255,0.125
'27:02.025',-0.270,0.135
'27:02.028',-0.285,0.145
'27:02.031',-0.300,0.155
'27:02.033',-0.275,0.170
'27:02.036',-0.265,0.175
'27:02.039',-0.285,0.175
'27:02.042',-0.295,0.155
'27:02.044',-0.320,0.155
'27:02.047',-0.315,0.170
'27:02.050',-0.310,0.185
'27:02.053',-0.315,0.170
'27:02.056',-0.355,0.150
'27:02.058',-0.370,0.140
'27:02.061',-0.375,0.155
'27:02.064',-0.370,0.165
'27:02.067',-0.365,0.200
'27:02.069',-0.350,0.180
'27:02.072',-0.345,0.175
'27:02.075',-0.365,0.170
'27:02.078',-0.375,0.175
'27:02.081',-0.350,0.185
'27:02.083',-0.330,0.195
'27:02.086',-0.300,0.180
'27:02.089',-0.310,0.155
'27:02.092',-0.305,0.130
'27:02.094',-0.305,0.125
'27:02.097',-0.305,0.140
'27:02.100',-0.290,0.150
'27:02.103',-0.270,0.140
'27:02.106',-0.270,0.105
'27:02.108',-0.285,0.070
'27:02.111',-0.295,0.080
'27:02.114',-0.285,0.085
'27:02.117',-0.265,0.085
'27:02.119',-0.270,0.085
'27:02.122',-0.265,0.075
'27:02.125',-0.280,0.055
'27:02.128',-0.285,0.055
'27:02.131',-0.280,0.080
'27:02.133',-0.270,0.090
'27:02.136',-0.265,0.090
'27:02.139',-0.270,0.070
'27:02.142',-0.285,0.075
'27:02.144',-0.295,0.070
'27:02.147',-0.295,0.075
'27:02.150',-0.280,0.100
'27:02.153',-0.270,0.110
'27:02.156',-0.290,0.080
'27:02.158',-0.310,0.080
'27:02.161',-0.315,0.085
'27:02.164',-0.315,0.105
'27:02.167',-0.290,0.110
'27:02.169',-0.285,0.110
'27:02.172',-0.300,0.115
'27:02.175',-0.300,0.085
'27:02.178',-0.305,0.095
'27:02.181',-0.310,0.105
'27:02.183',-0.310,0.120
'27:02.186',-0.320,0.110
'27:02.189',-0.320,0.100
'27:02.192',-0.335,0.090
'27:02.194',-0.380,0.080
'27:02.197',-0.410,0.105
'27:02.200',-0.385,0.120
'27:02.203',-0.375,0.110
'27:02.206',-0.385,0.105
'27:02.208',-0.420,0.110
'27:02.211',-0.435,0.115
'27:02.214',-0.420,0.125
'27:02.217',-0.390,0.150
'27:02.219',-0.385,0.150
'27:02.222',-0.410,0.135
'27:02.225',-0.415,0.135
'27:02.228',-0.425,0.150
'27:02.231',-0.405,0.170
'27:02.233',-0.375,0.185
'27:02.236',-0.360,0.170
'27:02.239',-0.375,0.135
'27:02.242',-0.390,0.120
'27:02.244',-0.385,0.120
'27:02.247',-0.390,0.135
'27:02.250',-0.390,0.130
'27:02.253',-0.385,0.120
'27:02.256',-0.380,0.115
'27:02.258',-0.370,0.100
'27:02.261',-0.385,0.095
'27:02.264',-0.405,0.105
'27:02.267',-0.370,0.110
'27:02.269',-0.360,0.090
'27:02.272',-0.375,0.085
'27:02.275',-0.395,0.030
'27:02.278',-0.405,0.025
'27:02.281',-0.385,0.030
'27:02.283',-0.380,0.035
'27:02.286',-0.375,0.035
'27:02.289',-0.395,0.030
'27:02.292',-0.395,0.020
'27:02.294',-0.375,0.035
'27:02.297',-0.390,0.030
'27:02.300',-0.385,0.050
'27:02.303',-0.355,0.050
'27:02.306',-0.355,0.040
'27:02.308',-0.360,0.025
'27:02.311',-0.390,0.055
'27:02.314',-0.400,0.065
'27:02.317',-0.375,0.085
'27:02.319',-0.370,0.095
'27:02.322',-0.380,0.095
'27:02.325',-0.395,0.090
'27:02.328',-0.405,0.110
'27:02.331',-0.410,0.120
'27:02.333',-0.395,0.130
'27:02.336',-0.410,0.135
'27:02.339',-0.425,0.140
'27:02.342',-0.440,0.115
'27:02.344',-0.460,0.140
'27:02.347',-0.480,0.170
'27:02.350',-0.475,0.180
'27:02.353',-0.475,0.165
'27:02.356',-0.490,0.175
'27:02.358',-0.515,0.170
'27:02.361',-0.520,0.175
'27:02.364',-0.515,0.185
'27:02.367',-0.495,0.190
'27:02.369',-0.490,0.200
'27:02.372',-0.505,0.180
'27:02.375',-0.515,0.165
'27:02.378',-0.515,0.175
'27:02.381',-0.520,0.175
'27:02.383',-0.505,0.180
'27:02.386',-0.490,0.180
'27:02.389',-0.495,0.170
'27:02.392',-0.515,0.160
'27:02.394',-0.535,0.145
'27:02.397',-0.535,0.155
'27:02.400',-0.520,0.175
'27:02.403',-0.500,0.150
'27:02.406',-0.515,0.145
'27:02.408',-0.525,0.110
'27:02.411',-0.535,0.105
'27:02.414',-0.535,0.110
'27:02.417',-0.540,0.140
'27:02.419',-0.530,0.135
'27:02.422',-0.530,0.105
'27:02.425',-0.550,0.085
'27:02.428',-0.565,0.065
'27:02.431',-0.560,0.080
'27:02.433',-0.540,0.080
'27:02.436',-0.525,0.055
'27:02.439',-0.545,0.045
'27:02.442',-0.560,0.030
'27:02.444',-0.560,0.040
'27:02.447',-0.555,0.050
'27:02.450',-0.555,0.050
'27:02.453',-0.545,0.055
'27:02.456',-0.545,0.040
'27:02.458',-0.550,0.035
'27:02.461',-0.560,0.055
'27:02.464',-0.545,0.090
'27:02.467',-0.545,0.115
'27:02.469',-0.550,0.110
'27:02.472',-0.575,0.100
'27:02.475',-0.585,0.100
'27:02.478',-0.605,0.115
'27:02.481',-0.605,0.135
'27:02.483',-0.605,0.155
'27:02.486',-0.605,0.175
'27:02.489',-0.620,0.180
'27:02.492',-0.650,0.180
'27:02.494',-0.665,0.205
'27:02.497',-0.635,0.220
'27:02.500',-0.620,0.260
'27:02.503',-0.615,0.265
'27:02.506',-0.605,0.285
'27:02.508',-0.590,0.275
'27:02.511',-0.550,0.320
'27:02.514',-0.490,0.370
'27:02.517',-0.420,0.425
'27:02.519',-0.350,0.465
'27:02.522',-0.315,0.485
'27:02.525',-0.275,0.500
'27:02.528',-0.250,0.535
'27:02.531',-0.245,0.570
'27:02.533',-0.305,0.600
'27:02.536',-0.370,0.555
'27:02.539',-0.390,0.470
'27:02.542',-0.375,0.370
'27:02.544',-0.310,0.245
'27:02.547',-0.235,0.100
'27:02.550',-0.185,-0.070
'27:02.553',-0.095,-0.230
'27:02.556',-0.010,-0.345
'27:02.558',0.045,-0.395
'27:02.561',0.060,-0.450
'27:02.564',0.025,-0.480
'27:02.567',-0.055,-0.465
'27:02.569',-0.130,-0.455
'27:02.572',-0.210,-0.410
'27:02.575',-0.330,-0.370
'27:02.578',-0.490,-0.305
'27:02.581',-0.640,-0.230
'27:02.583',-0.745,-0.140
'27:02.586',-0.805,-0.060
'27:02.589',-0.870,-0.010
'27:02.592',-0.895,0.050
'27:02.594',-0.895,0.100
'27:02.597',-0.900,0.145
'27:02.600',-0.905,0.180
'27:02.603',-0.930,0.205
'27:02.606',-0.950,0.215
'27:02.608',-0.995,0.205
'27:02.611',-1.030,0.210
'27:02.614',-1.035,0.210
'27:02.617',-1.030,0.250
'27:02.619',-1.045,0.250
'27:02.622',-1.075,0.255
'27:02.625',-1.090,0.250
'27:02.628',-1.090,0.260
'27:02.631',-1.105,0.285
'27:02.633',-1.095,0.295
'27:02.636',-1.085,0.290
'27:02.639',-1.080,0.300
'27:02.642',-1.105,0.300
'27:02.644',-1.115,0.290
'27:02.647',-1.080,0.320
'27:02.650',-1.075,0.325
'27:02.653',-1.070,0.325
'27:02.656',-1.065,0.285
'27:02.658',-1.065,0.260
'27:02.661',-1.065,0.255
'27:02.664',-1.070,0.265
'27:02.667',-1.055,0.260
'27:02.669',-1.040,0.255
'27:02.672',-1.040,0.230
'27:02.675',-1.035,0.205
'27:02.678',-1.045,0.210
'27:02.681',-1.030,0.210
'27:02.683',-1.010,0.220
'27:02.686',-1.015,0.190
'27:02.689',-1.000,0.155
'27:02.692',-1.010,0.145
'27:02.694',-0.995,0.130
'27:02.697',-0.980,0.140
'27:02.700',-0.975,0.165
'27:02.703',-0.970,0.140
'27:02.706',-0.965,0.145
'27:02.708',-0.965,0.130
'27:02.711',-0.975,0.140
'27:02.714',-0.975,0.165
'27:02.717',-0.950,0.190
'27:02.719',-0.920,0.200
'27:02.722',-0.930,0.200
'27:02.725',-0.940,0.180
'27:02.728',-0.940,0.195
'27:02.731',-0.915,0.225
'27:02.733',-0.885,0.250
'27:02.736',-0.890,0.250
'27:02.739',-0.895,0.250
'27:02.742',-0.890,0.235
'27:02.744',-0.880,0.250
'27:02.747',-0.860,0.265
'27:02.750',-0.850,0.285
'27:02.753',-0.835,0.285
'27:02.756',-0.835,0.260
'27:02.758',-0.865,0.245
'27:02.761',-0.890,0.260
'27:02.764',-0.910,0.295
'27:02.767',-0.885,0.305
'27:02.769',-0.875,0.315
'27:02.772',-0.885,0.305
'27:02.775',-0.900,0.295
'27:02.778',-0.910,0.310
'27:02.781',-0.905,0.350
'27:02.783',-0.905,0.365
'27:02.786',-0.900,0.380
'27:02.789',-0.910,0.370
'27:02.792',-0.940,0.355
'27:02.794',-0.945,0.355
'27:02.797',-0.960,0.370
'27:02.800',-0.960,0.385
'27:02.803',-0.970,0.375
'27:02.806',-0.970,0.360
'27:02.808',-0.990,0.335
'27:02.811',-1.000,0.330
'27:02.814',-1.010,0.335
'27:02.817',-0.995,0.355
'27:02.819',-0.995,0.330
'27:02.822',-1.005,0.335
'27:02.825',-1.020,0.295
'27:02.828',-1.030,0.295
'27:02.831',-1.015,0.290
'27:02.833',-1.010,0.265
'27:02.836',-1.005,0.245
'27:02.839',-1.010,0.215
'27:02.842',-1.040,0.195
'27:02.844',-1.075,0.190
'27:02.847',-1.050,0.185
'27:02.850',-1.050,0.180
'27:02.853',-1.060,0.170
'27:02.856',-1.060,0.175
'27:02.858',-1.075,0.180
'27:02.861',-1.075,0.180
'27:02.864',-1.070,0.205
'27:02.867',-1.080,0.230
'27:02.869',-1.065,0.230
'27:02.872',-1.060,0.220
'27:02.875',-1.090,0.210
'27:02.878',-1.095,0.220
'27:02.881',-1.085,0.240
'27:02.883',-1.070,0.245
'27:02.886',-1.070,0.240
'27:02.889',-1.085,0.230
'27:02.892',-1.095,0.220
'27:02.894',-1.105,0.225
'27:02.897',-1.110,0.240
'27:02.900',-1.125,0.260
'27:02.903',-1.125,0.260
'27:02.906',-1.145,0.250
'27:02.908',-1.145,0.255
'27:02.911',-1.150,0.255
'27:02.914',-1.150,0.290
'27:02.917',-1.110,0.305
'27:02.919',-1.100,0.305
'27:02.922',-1.110,0.295
'27:02.925',-1.095,0.285
'27:02.928',-1.115,0.295
'27:02.931',-1.110,0.300
'27:02.933',-1.095,0.330
'27:02.936',-1.080,0.320
'27:02.939',-1.085,0.305
'27:02.942',-1.095,0.295
'27:02.944',-1.095,0.290
'27:02.947',-1.075,0.310
'27:02.950',-1.075,0.320
'27:02.953',-1.055,0.330
'27:02.956',-1.060,0.295
'27:02.958',-1.065,0.280
'27:02.961',-1.060,0.270
'27:02.964',-1.060,0.265
'27:02.967',-1.045,0.275
'27:02.969',-1.040,0.255
'27:02.972',-1.025,0.235
'27:02.975',-1.035,0.215
'27:02.978',-1.050,0.190
'27:02.981',-1.040,0.205
'27:02.983',-1.035,0.200
'27:02.986',-1.020,0.175
'27:02.989',-1.040,0.170
'27:02.992',-1.035,0.165
'27:02.994',-1.050,0.165
'27:02.997',-1.045,0.190
'27:03.000',-1.025,0.215
'27:03.003',-1.010,0.215
'27:03.006',-1.020,0.190
'27:03.008',-1.035,0.195
'27:03.011',-1.055,0.190
'27:03.014',-1.060,0.205
'27:03.017',-1.035,0.215
'27:03.019',-1.030,0.215
'27:03.022',-1.050,0.205
'27:03.025',-1.065,0.195
'27:03.028',-1.080,0.205
'27:03.031',-1.085,0.205
'27:03.033',-1.085,0.225
'27:03.036',-1.090,0.210
'27:03.039',-1.100,0.205
'27:03.042',-1.140,0.200
'27:03.044',-1.140,0.200
'27:03.047',-1.145,0.215
'27:03.050',-1.115,0.225
'27:03.053',-1.100,0.225
'27:03.056',-1.110,0.225
'27:03.058',-1.110,0.210
'27:03.061',-1.105,0.215
'27:03.064',-1.110,0.225
'27:03.067',-1.085,0.235
'27:03.069',-1.075,0.235
'27:03.072',-1.070,0.235
'27:03.075',-1.090,0.225
'27:03.078',-1.090,0.215
'27:03.081',-1.085,0.225
'27:03.083',-1.055,0.260
'27:03.086',-1.050,0.235
'27:03.089',-1.065,0.230
'27:03.092',-1.075,0.220
'27:03.094',-1.065,0.235
'27:03.097',-1.065,0.240
'27:03.100',-1.065,0.250
'27:03.103',-1.050,0.235
'27:03.106',-1.055,0.215
'27:03.108',-1.050,0.195
'27:03.111',-1.065,0.180
'27:03.114',-1.050,0.170
'27:03.117',-1.010,0.165
'27:03.119',-1.005,0.140
'27:03.122',-1.010,0.125
'27:03.125',-1.035,0.100
'27:03.128',-1.030,0.090
'27:03.131',-1.030,0.100
'27:03.133',-1.010,0.130
'27:03.136',-0.985,0.115
'27:03.139',-0.980,0.120
'27:03.142',-1.000,0.120
'27:03.144',-1.015,0.130
'27:03.147',-1.005,0.155
'27:03.150',-0.980,0.170
'27:03.153',-0.960,0.170
'27:03.156',-0.985,0.155
'27:03.158',-0.995,0.145
'27:03.161',-0.985,0.145
'27:03.164',-0.975,0.170
'27:03.167',-0.960,0.185
'27:03.169',-0.945,0.160
'27:03.172',-0.960,0.155
'27:03.175',-0.960,0.150
'27:03.178',-0.975,0.165
'27:03.181',-0.985,0.180
'27:03.183',-0.970,0.200
'27:03.186',-0.985,0.195
'27:03.189',-0.995,0.185
'27:03.192',-1.015,0.175
'27:03.194',-1.020,0.195
'27:03.197',-1.015,0.215
'27:03.200',-0.995,0.225
'27:03.203',-0.985,0.245
'27:03.206',-1.000,0.230
'27:03.208',-1.010,0.215
'27:03.211',-1.010,0.225
'27:03.214',-1.000,0.240
'27:03.217',-0.980,0.265
'27:03.219',-0.975,0.260
'27:03.222',-0.980,0.235
'27:03.225',-0.975,0.235
'27:03.228',-0.985,0.245
'27:03.231',-0.955,0.250
'27:03.233',-0.955,0.270
'27:03.236',-0.935,0.270
'27:03.239',-0.930,0.250
'27:03.242',-0.930,0.235
'27:03.244',-0.945,0.240
'27:03.247',-0.935,0.250
'27:03.250',-0.910,0.255
'27:03.253',-0.910,0.235
'27:03.256',-0.905,0.210
'27:03.258',-0.895,0.180
'27:03.261',-0.890,0.185
'27:03.264',-0.895,0.170
'27:03.267',-0.870,0.190
'27:03.269',-0.875,0.135
'27:03.272',-0.870,0.105
'27:03.275',-0.870,0.085
'27:03.278',-0.880,0.065
'27:03.281',-0.895,0.075
'27:03.283',-0.880,0.080
'27:03.286',-0.845,0.070
'27:03.289',-0.850,0.030
'27:03.292',-0.870,0.020
'27:03.294',-0.880,0.020
'27:03.297',-0.860,0.025
'27:03.300',-0.840,0.045
'27:03.303',-0.845,0.060
'27:03.306',-0.835,0.055
'27:03.308',-0.835,0.045
'27:03.311',-0.820,0.055
'27:03.314',-0.815,0.070
'27:03.317',-0.810,0.100
'27:03.319',-0.805,0.110
'27:03.322',-0.805,0.095
'27:03.325',-0.800,0.105
'27:03.328',-0.805,0.100
'27:03.331',-0.805,0.120
'27:03.333',-0.775,0.155
'27:03.336',-0.755,0.145
'27:03.339',-0.780,0.140
'27:03.342',-0.815,0.140
'27:03.344',-0.800,0.170
'27:03.347',-0.780,0.200
'27:03.350',-0.725,0.245
'27:03.353',-0.655,0.265
'27:03.356',-0.605,0.280
'27:03.358',-0.550,0.305
'27:03.361',-0.505,0.325
'27:03.364',-0.425,0.365
'27:03.367',-0.270,0.375
'27:03.369',-0.135,0.385
'27:03.372',-0.030,0.360
'27:03.375',0.025,0.300
'27:03.378',0.085,0.235
'27:03.381',0.155,0.185
'27:03.383',0.265,0.125
'27:03.386',0.400,0.030
'27:03.389',0.525,-0.110
'27:03.392',0.600,-0.280
'27:03.394',0.635,-0.410
'27:03.397',0.660,-0.475
'27:03.400',0.725,-0.525
'27:03.403',0.750,-0.555
'27:03.406',0.710,-0.590
'27:03.408',0.615,-0.595
'27:03.411',0.480,-0.585
'27:03.414',0.335,-0.555
'27:03.417',0.220,-0.510
'27:03.419',0.050,-0.485
'27:03.422',-0.155,-0.450
'27:03.425',-0.355,-0.415
'27:03.428',-0.540,-0.340
'27:03.431',-0.665,-0.275
'27:03.433',-0.740,-0.200
'27:03.436',-0.800,-0.165
'27:03.439',-0.800,-0.140
'27:03.442',-0.810,-0.135
'27:03.444',-0.840,-0.115
'27:03.447',-0.860,-0.090
'27:03.450',-0.865,-0.035
'27:03.453',-0.855,-0.030
'27:03.456',-0.865,-0.030
'27:03.458',-0.885,-0.030
'27:03.461',-0.885,-0.005
'27:03.464',-0.885,0.025
'27:03.467',-0.880,0.050
'27:03.469',-0.865,0.065
'27:03.472',-0.880,0.080
'27:03.475',-0.885,0.060
'27:03.478',-0.905,0.080
'27:03.481',-0.900,0.110
'27:03.483',-0.885,0.130
'27:03.486',-0.870,0.130
'27:03.489',-0.895,0.130
'27:03.492',-0.915,0.115
'27:03.494',-0.950,0.135
'27:03.497',-0.945,0.150
'27:03.500',-0.920,0.195
'27:03.503',-0.885,0.180
'27:03.506',-0.885,0.175
'27:03.508',-0.875,0.165
'27:03.511',-0.870,0.180
'27:03.514',-0.845,0.205
'27:03.517',-0.825,0.240
'27:03.519',-0.795,0.235
'27:03.522',-0.790,0.230
'27:03.525',-0.795,0.215
'27:03.528',-0.795,0.225
'27:03.531',-0.770,0.245
'27:03.533',-0.725,0.255
'27:03.536',-0.700,0.250
'27:03.539',-0.685,0.245
'27:03.542',-0.670,0.235
'27:03.544',-0.675,0.225
'27:03.547',-0.650,0.240
'27:03.550',-0.615,0.250
'27:03.553',-0.590,0.240
'27:03.556',-0.590,0.220
'27:03.558',-0.570,0.180
'27:03.561',-0.555,0.160
'27:03.564',-0.525,0.160
'27:03.567',-0.485,0.135
'27:03.569',-0.470,0.135
'27:03.572',-0.460,0.085
'27:03.575',-0.465,0.080
'27:03.578',-0.440,0.075
'27:03.581',-0.430,0.085
'27:03.583',-0.405,0.080
'27:03.586',-0.385,0.065
'27:03.589',-0.375,0.060
'27:03.592',-0.375,0.055
'27:03.594',-0.400,0.060
'27:03.597',-0.390,0.060
'27:03.600',-0.350,0.075
'27:03.603',-0.340,0.060
'27:03.606',-0.350,0.040
'27:03.608',-0.340,0.035
'27:03.611',-0.355,0.030
'27:03.614',-0.315,0.060
'27:03.617',-0.305,0.055
'27:03.619',-0.295,0.075
'27:03.622',-0.295,0.070
'27:03.625',-0.290,0.065
'27:03.628',-0.315,0.095
'27:03.631',-0.330,0.115
'27:03.633',-0.310,0.155
'27:03.636',-0.305,0.155
'27:03.639',-0.325,0.150
'27:03.642',-0.375,0.145
'27:03.644',-0.405,0.160
'27:03.647',-0.405,0.175
'27:03.650',-0.390,0.205
'27:03.653',-0.395,0.200
'27:03.656',-0.390,0.200
'27:03.658',-0.390,0.195
'27:03.661',-0.410,0.215
'27:03.664',-0.395,0.220
'27:03.667',-0.390,0.235
'27:03.669',-0.375,0.235
'27:03.672',-0.375,0.220
'27:03.675',-0.395,0.200
'27:03.678',-0.415,0.180
'27:03.681',-0.400,0.190
'27:03.683',-0.360,0.200
'27:03.686',-0.355,0.195
'27:03.689',-0.375,0.160
'27:03.692',-0.385,0.140
'27:03.694',-0.390,0.140
'27:03.697',-0.370,0.150
'27:03.700',-0.360,0.155
'27:03.703',-0.375,0.135
'27:03.706',-0.375,0.120
'27:03.708',-0.385,0.125
'27:03.711',-0.390,0.115
'27:03.714',-0.380,0.120
'27:03.717',-0.375,0.135
'27:03.719',-0.360,0.110
'27:03.722',-0.345,0.095
'27:03.725',-0.385,0.085
'27:03.728',-0.390,0.085
'27:03.731',-0.400,0.095
'27:03.733',-0.385,0.105
'27:03.736',-0.360,0.100
'27:03.739',-0.370,0.085
'27:03.742',-0.375,0.060
'27:03.744',-0.380,0.060
'27:03.747',-0.365,0.075
'27:03.750',-0.345,0.085
'27:03.753',-0.340,0.085
'27:03.756',-0.355,0.075
'27:03.758',-0.360,0.070
'27:03.761',-0.365,0.060
'27:03.764',-0.375,0.085
'27:03.767',-0.355,0.100
'27:03.769',-0.360,0.090
'27:03.772',-0.355,0.075
'27:03.775',-0.375,0.050
'27:03.778',-0.400,0.055
'27:03.781',-0.390,0.075
'27:03.783',-0.350,0.095
'27:03.786',-0.340,0.080
'27:03.789',-0.355,0.080
'27:03.792',-0.375,0.080
'27:03.794',-0.370,0.090
'27:03.797',-0.360,0.115
'27:03.800',-0.325,0.140
'27:03.803',-0.320,0.130
'27:03.806',-0.320,0.130
'27:03.808',-0.330,0.130
'27:03.811',-0.315,0.125
'27:03.814',-0.300,0.150
'27:03.817',-0.295,0.170
'27:03.819',-0.270,0.170
'27:03.822',-0.270,0.155
'27:03.825',-0.265,0.150
'27:03.828',-0.270,0.120
'27:03.831',-0.255,0.145
'27:03.833',-0.235,0.140
'27:03.836',-0.230,0.125
'27:03.839',-0.245,0.115
'27:03.842',-0.235,0.105
'27:03.844',-0.240,0.100
'27:03.847',-0.225,0.110
'27:03.850',-0.230,0.125
'27:03.853',-0.230,0.110
'27:03.856',-0.230,0.095
'27:03.858',-0.230,0.085
'27:03.861',-0.235,0.080
'27:03.864',-0.225,0.100
'27:03.867',-0.200,0.110
'27:03.869',-0.180,0.100
'27:03.872',-0.195,0.085
'27:03.875',-0.220,0.065
'27:03.878',-0.225,0.075
'27:03.881',-0.195,0.085
'27:03.883',-0.200,0.070
'27:03.886',-0.190,0.075
'27:03.889',-0.190,0.040
'27:03.892',-0.190,0.025
'27:03.894',-0.200,0.020
'27:03.897',-0.200,0.030
'27:03.900',-0.180,0.045
'27:03.903',-0.170,0.040
'27:03.906',-0.180,0.020
'27:03.908',-0.200,0.005
'27:03.911',-0.220,0.025
'27:03.914',-0.215,0.035
'27:03.917',-0.215,0.055
'27:03.919',-0.210,0.065
'27:03.922',-0.230,0.045
'27:03.925',-0.210,0.050
'27:03.928',-0.215,0.060
'27:03.931',-0.220,0.080
'27:03.933',-0.225,0.100
'27:03.936',-0.215,0.105
'27:03.939',-0.220,0.135
'27:03.942',-0.215,0.155
'27:03.944',-0.145,0.190
'27:03.947',-0.060,0.255
'27:03.950',0.020,0.290
'27:03.953',0.095,0.310
'27:03.956',0.220,0.280
'27:03.958',0.355,0.275
'27:03.961',0.525,0.280
'27:03.964',0.670,0.265
'27:03.967',0.820,0.190
'27:03.969',0.955,0.110
'27:03.972',1.050,0.000
'27:03.975',1.160,-0.100
'27:03.978',1.260,-0.185
'27:03.981',1.365,-0.300
'27:03.983',1.425,-0.405
'27:03.986',1.425,-0.515
'27:03.989',1.430,-0.590
'27:03.992',1.425,-0.625
'27:03.994',1.370,-0.615
'27:03.997',1.265,-0.595
'27:04.000',1.140,-0.575
'27:04.003',0.980,-0.545
'27:04.006',0.830,-0.535
'27:04.008',0.665,-0.500
'27:04.011',0.450,-0.440
'27:04.014',0.235,-0.350
'27:04.017',0.055,-0.275
'27:04.019',-0.080,-0.215
'27:04.022',-0.205,-0.170
'27:04.025',-0.295,-0.115
'27:04.028',-0.320,-0.050
'27:04.031',-0.320,-0.020
'27:04.033',-0.325,0.010
'27:04.036',-0.315,0.015
'27:04.039',-0.355,0.000
'27:04.042',-0.380,-0.005
'27:04.044',-0.400,0.000
'27:04.047',-0.390,0.010
'27:04.050',-0.380,0.015
'27:04.053',-0.385,0.005
'27:04.056',-0.410,0.025
'27:04.058',-0.410,-0.005
'27:04.061',-0.440,0.000
'27:04.064',-0.440,0.005
'27:04.067',-0.440,0.045
'27:04.069',-0.450,0.030
'27:04.072',-0.445,0.020
'27:04.075',-0.460,0.005
'27:04.078',-0.490,0.030
'27:04.081',-0.485,0.040
'27:04.083',-0.465,0.060
'27:04.086',-0.460,0.065
'27:04.089',-0.465,0.065
'27:04.092',-0.470,0.055
'27:04.094',-0.460,0.060
'27:04.097',-0.430,0.100
'27:04.100',-0.410,0.090
'27:04.103',-0.380,0.105
'27:04.106',-0.365,0.095
'27:04.108',-0.355,0.075
'27:04.111',-0.335,0.075
'27:04.114',-0.330,0.090
'27:04.117',-0.300,0.115
'27:04.119',-0.260,0.120
'27:04.122',-0.255,0.110
'27:04.125',-0.260,0.110
'27:04.128',-0.250,0.110
'27:04.131',-0.230,0.140
'27:04.133',-0.200,0.155
'27:04.136',-0.175,0.150
'27:04.139',-0.190,0.140
'27:04.142',-0.180,0.130
'27:04.144',-0.180,0.140
'27:04.147',-0.150,0.150
'27:04.150',-0.125,0.165
'27:04.153',-0.110,0.165
'27:04.156',-0.105,0.140
'27:04.158',-0.105,0.140
'27:04.161',-0.100,0.145
'27:04.164',-0.085,0.160
'27:04.167',-0.055,0.175
'27:04.169',-0.025,0.160
'27:04.172',-0.035,0.165
'27:04.175',-0.045,0.150
'27:04.178',-0.050,0.140
'27:04.181',-0.005,0.145
'27:04.183',0.000,0.145
'27:04.186',0.025,0.115
'27:04.189',0.030,0.095
'27:04.192',0.030,0.085
'27:04.194',0.045,0.070
'27:04.197',0.055,0.080
'27:04.200',0.060,0.095
'27:04.203',0.085,0.080
'27:04.206',0.085,0.065
'27:04.208',0.050,0.055
'27:04.211',0.030,0.055
'27:04.214',0.010,0.080
'27:04.217',0.010,0.090
'27:04.219',-0.005,0.085
'27:04.222',-0.040,0.075
'27:04.225',-0.080,0.085
'27:04.228',-0.105,0.070
'27:04.231',-0.105,0.100
'27:04.233',-0.100,0.125
'27:04.236',-0.115,0.130
'27:04.239',-0.130,0.120
'27:04.242',-0.145,0.110
'27:04.244',-0.145,0.120
'27:04.247',-0.165,0.155
'27:04.250',-0.160,0.160
'27:04.253',-0.170,0.150
'27:04.256',-0.170,0.155
'27:04.258',-0.170,0.140
'27:04.261',-0.195,0.155
'27:04.264',-0.205,0.180
'27:04.267',-0.205,0.195
'27:04.269',-0.195,0.190
'27:04.272',-0.210,0.185
'27:04.275',-0.235,0.175
'27:04.278',-0.245,0.180
'27:04.281',-0.245,0.230
'27:04.283',-0.225,0.230
'27:04.286',-0.195,0.225
'27:04.289',-0.230,0.225
'27:04.292',-0.255,0.210
'27:04.294',-0.250,0.225
'27:04.297',-0.235,0.260
'27:04.300',-0.225,0.280
'27:04.303',-0.245,0.270
'27:04.306',-0.255,0.260
'27:04.308',-0.270,0.255
'27:04.311',-0.285,0.250
'27:04.314',-0.280,0.260
'27:04.317',-0.270,0.270
'27:04.319',-0.270,0.270
'27:04.322',-0.275,0.255
'27:04.325',-0.305,0.240
'27:04.328',-0.325,0.245
'27:04.331',-0.330,0.265
'27:04.333',-0.300,0.265
'27:04.336',-0.300,0.245
'27:04.339',-0.315,0.230
'27:04.342',-0.335,0.200
'27:04.344',-0.335,0.195
'27:04.347',-0.310,0.200
'27:04.350',-0.310,0.205
'27:04.353',-0.310,0.180
'27:04.356',-0.330,0.160
'27:04.358',-0.350,0.145
'27:04.361',-0.350,0.145
'27:04.364',-0.355,0.140
'27:04.367',-0.360,0.150
'27:04.369',-0.345,0.130
'27:04.372',-0.350,0.110
'27:04.375',-0.395,0.085
'27:04.378',-0.405,0.115
'27:04.381',-0.380,0.115
'27:04.383',-0.365,0.135
'27:04.386',-0.355,0.135
'27:04.389',-0.375,0.110
'27:04.392',-0.395,0.110
'27:04.394',-0.390,0.115
'27:04.397',-0.380,0.145
'27:04.400',-0.365,0.150
'27:04.403',-0.360,0.140
'27:04.406',-0.360,0.130
'27:04.408',-0.365,0.115
'27:04.411',-0.370,0.115
'27:04.414',-0.360,0.145
'27:04.417',-0.350,0.175
'27:04.419',-0.325,0.165
'27:04.422',-0.325,0.155
'27:04.425',-0.350,0.145
'27:04.428',-0.350,0.155
'27:04.431',-0.330,0.175
'27:04.433',-0.350,0.190
'27:04.436',-0.345,0.185
'27:04.439',-0.360,0.180
'27:04.442',-0.370,0.165
'27:04.444',-0.375,0.190
'27:04.447',-0.380,0.205
'27:04.450',-0.360,0.220
'27:04.453',-0.350,0.230
'27:04.456',-0.355,0.220
'27:04.458',-0.355,0.200
'27:04.461',-0.350,0.210
'27:04.464',-0.350,0.220
'27:04.467',-0.345,0.250
'27:04.469',-0.340,0.225
'27:04.472',-0.345,0.230
'27:04.475',-0.360,0.210
'27:04.478',-0.370,0.195
'27:04.481',-0.370,0.205
'27:04.483',-0.350,0.200
'27:04.486',-0.350,0.195
'27:04.489',-0.370,0.170
'27:04.492',-0.385,0.150
'27:04.494',-0.400,0.140
'27:04.497',-0.395,0.155
'27:04.500',-0.390,0.160
'27:04.503',-0.400,0.135
'27:04.506',-0.420,0.125
'27:04.508',-0.440,0.100
'27:04.511',-0.455,0.100
'27:04.514',-0.440,0.100
'27:04.517',-0.420,0.130
'27:04.519',-0.400,0.135
'27:04.522',-0.410,0.115
'27:04.525',-0.425,0.100
'27:04.528',-0.420,0.125
'27:04.531',-0.415,0.125
'27:04.533',-0.385,0.165
'27:04.536',-0.380,0.150
'27:04.539',-0.385,0.140
'27:04.542',-0.380,0.115
'27:04.544',-0.375,0.130
'27:04.547',-0.370,0.145
'27:04.550',-0.355,0.165
'27:04.553',-0.350,0.155
'27:04.556',-0.330,0.145
'27:04.558',-0.365,0.150
'27:04.561',-0.385,0.155
'27:04.564',-0.370,0.165
'27:04.567',-0.360,0.195
'27:04.569',-0.360,0.195
'27:04.572',-0.375,0.170
'27:04.575',-0.395,0.180
'27:04.578',-0.380,0.200
'27:04.581',-0.380,0.230
'27:04.583',-0.375,0.265
'27:04.586',-0.335,0.285
'27:04.589',-0.305,0.295
'27:04.592',-0.235,0.310
'27:04.594',-0.155,0.365
'27:04.597',-0.050,0.430
'27:04.600',0.060,0.485
'27:04.603',0.175,0.510
'27:04.606',0.255,0.515
'27:04.608',0.315,0.530
'27:04.611',0.340,0.535
'27:04.614',0.345,0.525
'27:04.617',0.350,0.480
'27:04.619',0.370,0.400
'27:04.622',0.410,0.290
'27:04.625',0.470,0.140
'27:04.628',0.515,-0.025
'27:04.631',0.555,-0.150
'27:04.633',0.630,-0.260
'27:04.636',0.695,-0.330
'27:04.639',0.710,-0.400
'27:04.642',0.675,-0.455
'27:04.644',0.585,-0.465
'27:04.647',0.465,-0.460
'27:04.650',0.350,-0.430
'27:04.653',0.240,-0.405
'27:04.656',0.120,-0.385
'27:04.658',-0.065,-0.325
'27:04.661',-0.235,-0.260
'27:04.664',-0.355,-0.190
'27:04.667',-0.410,-0.135
'27:04.669',-0.470,-0.080
'27:04.672',-0.515,-0.055
'27:04.675',-0.540,-0.025
'27:04.678',-0.525,0.005
'27:04.681',-0.520,0.035
'27:04.683',-0.520,0.070
'27:04.686',-0.535,0.055
'27:04.689',-0.565,0.050
'27:04.692',-0.570,0.050
'27:04.694',-0.580,0.060
'27:04.697',-0.590,0.080
'27:04.700',-0.580,0.090
'27:04.703',-0.560,0.105
'27:04.706',-0.580,0.095
'27:04.708',-0.595,0.085
'27:04.711',-0.630,0.090
'27:04.714',-0.605,0.120
'27:04.717',-0.590,0.130
'27:04.719',-0.580,0.145
'27:04.722',-0.590,0.120
'27:04.725',-0.625,0.125
'27:04.728',-0.625,0.125
'27:04.731',-0.595,0.150
'27:04.733',-0.590,0.160
'27:04.736',-0.585,0.180
'27:04.739',-0.580,0.155
'27:04.742',-0.595,0.155
'27:04.744',-0.600,0.155
'27:04.747',-0.590,0.175
'27:04.750',-0.580,0.190
'27:04.753',-0.560,0.205
'27:04.756',-0.560,0.190
'27:04.758',-0.570,0.205
'27:04.761',-0.565,0.215
'27:04.764',-0.570,0.225
'27:04.767',-0.550,0.265
'27:04.769',-0.530,0.260
'27:04.772',-0.535,0.240
'27:04.775',-0.545,0.240
'27:04.778',-0.550,0.230
'27:04.781',-0.535,0.250
'27:04.783',-0.505,0.235
'27:04.786',-0.475,0.220
'27:04.789',-0.460,0.185
'27:04.792',-0.465,0.155
'27:04.794',-0.445,0.165
'27:04.797',-0.420,0.180
'27:04.800',-0.390,0.180
'27:04.803',-0.365,0.155
'27:04.806',-0.355,0.140
'27:04.808',-0.335,0.125
'27:04.811',-0.335,0.120
'27:04.814',-0.315,0.130
'27:04.817',-0.290,0.150
'27:04.819',-0.260,0.125
'27:04.822',-0.240,0.115
'27:04.825',-0.245,0.125
'27:04.828',-0.240,0.110
'27:04.831',-0.205,0.115
'27:04.833',-0.170,0.120
'27:04.836',-0.175,0.125
'27:04.839',-0.185,0.100
'27:04.842',-0.180,0.100
'27:04.844',-0.160,0.105
'27:04.847',-0.135,0.110
'27:04.850',-0.125,0.120
'27:04.853',-0.100,0.115
'27:04.856',-0.085,0.110
'27:04.858',-0.090,0.090
'27:04.861',-0.095,0.090
'27:04.864',-0.100,0.105
'27:04.867',-0.080,0.115
'27:04.869',-0.070,0.105
'27:04.872',-0.105,0.100
'27:04.875',-0.135,0.105
'27:04.878',-0.140,0.115
'27:04.881',-0.140,0.135
'27:04.883',-0.135,0.160
'27:04.886',-0.145,0.155
'27:04.889',-0.160,0.140
'27:04.892',-0.190,0.140
'27:04.894',-0.230,0.145
'27:04.897',-0.240,0.170
'27:04.900',-0.255,0.185
'27:04.903',-0.255,0.190
'27:04.906',-0.255,0.180
'27:04.908',-0.290,0.170
'27:04.911',-0.325,0.185
'27:04.914',-0.320,0.210
'27:04.917',-0.310,0.235
'27:04.919',-0.330,0.230
'27:04.922',-0.350,0.215
'27:04.925',-0.380,0.215
'27:04.928',-0.380,0.215
'27:04.931',-0.365,0.235
'27:04.933',-0.355,0.270
'27:04.936',-0.360,0.250
'27:04.939',-0.360,0.235
'27:04.942',-0.360,0.210
'27:04.944',-0.355,0.210
'27:04.947',-0.340,0.200
'27:04.950',-0.330,0.225
'27:04.953',-0.295,0.205
'27:04.956',-0.300,0.195
'27:04.958',-0.310,0.165
'27:04.961',-0.300,0.165
'27:04.964',-0.275,0.190
'27:04.967',-0.275,0.185
'27:04.969',-0.280,0.205
'27:04.972',-0.270,0.170
'27:04.975',-0.280,0.160
'27:04.978',-0.280,0.170
'27:04.981',-0.280,0.185
'27:04.983',-0.245,0.210
'27:04.986',-0.220,0.195
'27:04.989',-0.215,0.190
'27:04.992',-0.195,0.185
'27:04.994',-0.130,0.210
'27:04.997',-0.010,0.245
'27:05.000',0.085,0.280
'27:05.003',0.135,0.340
'27:05.006',0.110,0.380
'27:05.008',0.100,0.425
'27:05.011',0.080,0.500
'27:05.014',0.040,0.550
'27:05.017',-0.030,0.605
'27:05.019',-0.140,0.600
'27:05.022',-0.275,0.585
'27:05.025',-0.360,0.535
'27:05.028',-0.365,0.465
'27:05.031',-0.225,0.360
'27:05.033',-0.055,0.250
'27:05.036',0.055,0.095
'27:05.039',0.170,-0.030
'27:05.042',0.360,-0.140
'27:05.044',0.495,-0.210
'27:05.047',0.555,-0.250
'27:05.050',0.590,-0.290
'27:05.053',0.590,-0.350
'27:05.056',0.520,-0.350
'27:05.058',0.390,-0.365
'27:05.061',0.250,-0.335
'27:05.064',0.165,-0.295
'27:05.067',0.065,-0.240
'27:05.069',-0.050,-0.200
'27:05.072',-0.200,-0.170
'27:05.075',-0.280,-0.140
'27:05.078',-0.345,-0.105
'27:05.081',-0.370,-0.045
'27:05.083',-0.380,0.005
'27:05.086',-0.375,0.035
'27:05.089',-0.385,0.030
'27:05.092',-0.410,0.020
'27:05.094',-0.415,0.035
'27:05.097',-0.415,0.055
'27:05.100',-0.400,0.065
'27:05.103',-0.415,0.050
'27:05.106',-0.435,0.040
'27:05.108',-0.430,0.030
'27:05.111',-0.435,0.030
'27:05.114',-0.430,0.045
'27:05.117',-0.415,0.055
'27:05.119',-0.400,0.050
'27:05.122',-0.400,0.045
'27:05.125',-0.420,0.025
'27:05.128',-0.425,0.035
'27:05.131',-0.420,0.055
'27:05.133',-0.405,0.085
'27:05.136',-0.385,0.085
'27:05.139',-0.390,0.065
'27:05.142',-0.415,0.045
'27:05.144',-0.410,0.060
'27:05.147',-0.365,0.085
'27:05.150',-0.340,0.095
'27:05.153',-0.330,0.090
'27:05.156',-0.335,0.085
'27:05.158',-0.340,0.065
'27:05.161',-0.345,0.080
'27:05.164',-0.340,0.095
'27:05.167',-0.315,0.120
'27:05.169',-0.280,0.125
'27:05.172',-0.270,0.110
'27:05.175',-0.260,0.105
'27:05.178',-0.270,0.130
'27:05.181',-0.240,0.135
'27:05.183',-0.200,0.150
'27:05.186',-0.185,0.145
'27:05.189',-0.185,0.125
'27:05.192',-0.175,0.110
'27:05.194',-0.165,0.110
'27:05.197',-0.130,0.120
'27:05.200',-0.100,0.140
'27:05.203',-0.100,0.140
'27:05.206',-0.095,0.115
'27:05.208',-0.095,0.090
'27:05.211',-0.085,0.100
'27:05.214',-0.065,0.130
'27:05.217',-0.040,0.130
'27:05.219',-0.025,0.135
'27:05.222',-0.020,0.130
'27:05.225',-0.045,0.085
'27:05.228',-0.050,0.090
'27:05.231',-0.025,0.095
'27:05.233',0.015,0.110
'27:05.236',0.030,0.095
'27:05.239',0.035,0.060
'27:05.242',0.020,0.050
'27:05.244',0.020,0.050
'27:05.247',0.030,0.045
'27:05.250',0.060,0.045
'27:05.253',0.045,0.045
'27:05.256',0.035,0.030
'27:05.258',0.030,0.035
'27:05.261',0.030,0.025
'27:05.264',0.040,0.040
'27:05.267',0.030,0.070
'27:05.269',0.025,0.070
'27:05.272',0.015,0.060
'27:05.275',0.005,0.055
'27:05.278',-0.010,0.075
'27:05.281',-0.030,0.105
'27:05.283',-0.015,0.130
'27:05.286',-0.005,0.140
'27:05.289',-0.020,0.125
'27:05.292',-0.045,0.135
'27:05.294',-0.080,0.135
'27:05.297',-0.070,0.145
'27:05.300',-0.055,0.160
'27:05.303',-0.040,0.185
'27:05.306',-0.065,0.165
'27:05.308',-0.090,0.155
'27:05.311',-0.110,0.180
'27:05.314',-0.100,0.195
'27:05.317',-0.100,0.230
'27:05.319',-0.120,0.215
'27:05.322',-0.130,0.215
'27:05.325',-0.135,0.200
'27:05.328',-0.140,0.220
'27:05.331',-0.125,0.230
'27:05.333',-0.120,0.255
'27:05.336',-0.125,0.235
'27:05.339',-0.125,0.225
'27:05.342',-0.130,0.220
'27:05.344',-0.130,0.225
'27:05.347',-0.110,0.235
'27:05.350',-0.105,0.245
'27:05.353',-0.095,0.240
'27:05.356',-0.095,0.230
'27:05.358',-0.105,0.200
'27:05.361',-0.115,0.205
'27:05.364',-0.105,0.215
'27:05.367',-0.075,0.220
'27:05.369',-0.075,0.205
'27:05.372',-0.080,0.165
'27:05.375',-0.125,0.160
'27:05.378',-0.125,0.165
'27:05.381',-0.090,0.165
'27:05.383',-0.065,0.165
'27:05.386',-0.055,0.150
'27:05.389',-0.075,0.135
'27:05.392',-0.075,0.105
'27:05.394',-0.065,0.100
'27:05.397',-0.060,0.110
'27:05.400',-0.055,0.120
'27:05.403',-0.050,0.100
'27:05.406',-0.050,0.040
'27:05.408',-0.065,0.025
'27:05.411',-0.075,0.015
'27:05.414',-0.055,0.035
'27:05.417',-0.040,0.015
'27:05.419',-0.020,0.025
'27:05.422',-0.040,0.015
'27:05.425',-0.070,0.005
'27:05.428',-0.055,0.015
'27:05.431',-0.040,0.010
'27:05.433',-0.015,0.030
'27:05.436',-0.030,0.020
'27:05.439',-0.030,0.005
'27:05.442',-0.045,0.000
'27:05.444',-0.040,0.015
'27:05.447',-0.040,0.035
'27:05.450',-0.035,0.045
'27:05.453',-0.035,0.035
'27:05.456',-0.055,0.025
'27:05.458',-0.050,0.015
'27:05.461',-0.065,0.030
'27:05.464',-0.075,0.055
'27:05.467',-0.075,0.070
'27:05.469',-0.045,0.060
'27:05.472',-0.070,0.055
'27:05.475',-0.095,0.045
'27:05.478',-0.090,0.050
'27:05.481',-0.075,0.080
'27:05.483',-0.060,0.075
'27:05.486',-0.055,0.090
'27:05.489',-0.070,0.075
'27:05.492',-0.060,0.065
'27:05.494',-0.060,0.090
'27:05.497',-0.065,0.095
'27:05.500',-0.045,0.110
'27:05.503',-0.035,0.100
'27:05.506',-0.035,0.090
'27:05.508',-0.055,0.085
'27:05.511',-0.065,0.080
'27:05.514',-0.055,0.110
'27:05.517',-0.030,0.125
'27:05.519',-0.025,0.115
'27:05.522',-0.045,0.100
'27:05.525',-0.040,0.090
'27:05.528',-0.030,0.110
'27:05.531',-0.030,0.120
'27:05.533',-0.015,0.140
'27:05.536',-0.030,0.135
'27:05.539',-0.030,0.110
'27:05.542',-0.050,0.090
'27:05.544',-0.065,0.100
'27:05.547',-0.055,0.110
'27:05.550',-0.045,0.110
'27:05.553',-0.030,0.100
'27:05.556',-0.040,0.080
'27:05.558',-0.060,0.075
'27:05.561',-0.080,0.085
'27:05.564',-0.075,0.110
'27:05.567',-0.040,0.120
'27:05.569',-0.045,0.115
'27:05.572',-0.050,0.095
'27:05.575',-0.060,0.095
'27:05.578',-0.065,0.110
'27:05.581',-0.055,0.115
'27:05.583',-0.050,0.140
'27:05.586',-0.040,0.125
'27:05.589',-0.050,0.115
'27:05.592',-0.070,0.105
'27:05.594',-0.075,0.115
'27:05.597',-0.065,0.135
'27:05.600',-0.055,0.140
'27:05.603',-0.060,0.140
'27:05.606',-0.050,0.120
'27:05.608',-0.065,0.090
'27:05.611',-0.070,0.090
'27:05.614',-0.050,0.105
'27:05.617',-0.030,0.105
'27:05.619',-0.020,0.095
'27:05.622',-0.030,0.090
'27:05.625',-0.025,0.070
'27:05.628',-0.030,0.060
'27:05.631',-0.025,0.080
'27:05.633',0.005,0.090
'27:05.636',0.005,0.090
'27:05.639',0.015,0.080
'27:05.642',0.000,0.065
'27:05.644',0.005,0.070
'27:05.647',0.030,0.080
'27:05.650',0.040,0.095
'27:05.653',0.045,0.085
'27:05.656',0.045,0.075
'27:05.658',0.035,0.075
'27:05.661',0.040,0.080
'27:05.664',0.045,0.090
'27:05.667',0.050,0.095
'27:05.669',0.065,0.085
'27:05.672',0.070,0.070
'27:05.675',0.035,0.085
'27:05.678',0.030,0.065
'27:05.681',0.045,0.100
'27:05.683',0.060,0.110
'27:05.686',0.065,0.085
'27:05.689',0.055,0.085
'27:05.692',0.050,0.065
'27:05.694',0.050,0.075
'27:05.697',0.055,0.060
'27:05.700',0.065,0.090
'27:05.703',0.060,0.060
'27:05.706',0.060,0.055
'27:05.708',0.055,0.030
'27:05.711',0.035,0.055
'27:05.714',0.040,0.060
'27:05.717',0.045,0.080
'27:05.719',0.055,0.085
'27:05.722',0.040,0.065
'27:05.725',0.015,0.060
'27:05.728',0.015,0.070
'27:05.731',0.025,0.090
'27:05.733',0.050,0.100
'27:05.736',0.045,0.090
'27:05.739',0.035,0.080
'27:05.742',0.015,0.065
'27:05.744',0.015,0.075
'27:05.747',0.030,0.095
'27:05.750',0.020,0.110
'27:05.753',0.040,0.090
'27:05.756',0.025,0.080
'27:05.758',0.030,0.065
'27:05.761',0.040,0.085
'27:05.764',0.035,0.090
'27:05.767',0.045,0.105
'27:05.769',0.050,0.100
'27:05.772',0.065,0.080
'27:05.775',0.035,0.065
'27:05.778',0.060,0.075
'27:05.781',0.075,0.065
'27:05.783',0.070,0.080
'27:05.786',0.100,0.075
'27:05.789',0.085,0.055
'27:05.792',0.090,0.055
'27:05.794',0.080,0.045
'27:05.797',0.085,0.055
'27:05.800',0.100,0.075
'27:05.803',0.115,0.055
'27:05.806',0.115,0.050
'27:05.808',0.090,0.030
'27:05.811',0.090,0.035
'27:05.814',0.125,0.045
'27:05.817',0.135,0.060
'27:05.819',0.140,0.050
'27:05.822',0.125,0.025
'27:05.825',0.110,0.030
'27:05.828',0.100,0.045
'27:05.831',0.125,0.055
'27:05.833',0.125,0.080
'27:05.836',0.115,0.080
'27:05.839',0.115,0.075
'27:05.842',0.105,0.070
'27:05.844',0.100,0.080
'27:05.847',0.095,0.105
'27:05.850',0.110,0.115
'27:05.853',0.125,0.125
'27:05.856',0.120,0.110
'27:05.858',0.105,0.095
'27:05.861',0.090,0.105
'27:05.864',0.105,0.120
'27:05.867',0.105,0.130
'27:05.869',0.110,0.130
'27:05.872',0.110,0.125
'27:05.875',0.070,0.110
'27:05.878',0.080,0.100
'27:05.881',0.095,0.125
'27:05.883',0.115,0.125
'27:05.886',0.100,0.100
'27:05.889',0.115,0.075
'27:05.892',0.100,0.050
'27:05.894',0.105,0.055
'27:05.897',0.095,0.055
'27:05.900',0.105,0.075
'27:05.903',0.115,0.075
'27:05.906',0.100,0.065
'27:05.908',0.075,0.050
'27:05.911',0.060,0.045
'27:05.914',0.075,0.070
'27:05.917',0.110,0.090
'27:05.919',0.115,0.085
'27:05.922',0.115,0.065
'27:05.925',0.105,0.055
'27:05.928',0.125,0.070
'27:05.931',0.140,0.075
'27:05.933',0.145,0.080
'27:05.936',0.160,0.095
'27:05.939',0.175,0.075
'27:05.942',0.175,0.080
'27:05.944',0.170,0.100
'27:05.947',0.170,0.135
'27:05.950',0.250,0.175
'27:05.953',0.330,0.195
'27:05.956',0.395,0.200
'27:05.958',0.415,0.235
'27:05.961',0.460,0.285
'27:05.964',0.555,0.310
'27:05.967',0.660,0.345
'27:05.969',0.755,0.350
'27:05.972',0.795,0.360
'27:05.975',0.795,0.355
'27:05.978',0.815,0.340
'27:05.981',0.825,0.300
'27:05.983',0.860,0.250
'27:05.986',0.925,0.185
'27:05.989',0.995,0.105
'27:05.992',1.065,-0.030
'27:05.994',1.100,-0.145
'27:05.997',1.135,-0.245
'27:06.000',1.210,-0.310
'27:06.003',1.290,-0.375
'27:06.006',1.300,-0.460
'27:06.008',1.265,-0.485
'27:06.011',1.200,-0.480
'27:06.014',1.090,-0.475
'27:06.017',0.990,-0.445
'27:06.019',0.880,-0.430
'27:06.022',0.745,-0.425
'27:06.025',0.590,-0.390
'27:06.028',0.410,-0.335
'27:06.031',0.245,-0.260
'27:06.033',0.145,-0.195
'27:06.036',0.075,-0.140
'27:06.039',0.005,-0.090
'27:06.042',-0.045,-0.070
'27:06.044',-0.065,-0.045
'27:06.047',-0.060,-0.010
'27:06.050',-0.035,0.000
'27:06.053',-0.070,-0.005
'27:06.056',-0.090,-0.010
'27:06.058',-0.125,0.000
'27:06.061',-0.135,0.020
'27:06.064',-0.135,0.035
'27:06.067',-0.125,0.065
'27:06.069',-0.140,0.050
'27:06.072',-0.145,0.055
'27:06.075',-0.165,0.050
'27:06.078',-0.185,0.050
'27:06.081',-0.175,0.075
'27:06.083',-0.155,0.095
'27:06.086',-0.165,0.080
'27:06.089',-0.180,0.070
'27:06.092',-0.190,0.070
'27:06.094',-0.185,0.085
'27:06.097',-0.175,0.105
'27:06.100',-0.160,0.110
'27:06.103',-0.155,0.115
'27:06.106',-0.155,0.090
'27:06.108',-0.170,0.105
'27:06.111',-0.160,0.120
'27:06.114',-0.150,0.140
'27:06.117',-0.130,0.165
'27:06.119',-0.130,0.160
'27:06.122',-0.125,0.155
'27:06.125',-0.135,0.155
'27:06.128',-0.140,0.185
'27:06.131',-0.105,0.205
'27:06.133',-0.100,0.205
'27:06.136',-0.105,0.210
'27:06.139',-0.095,0.205
'27:06.142',-0.095,0.195
'27:06.144',-0.075,0.220
'27:06.147',-0.070,0.245
'27:06.150',-0.045,0.245
'27:06.153',-0.020,0.230
'27:06.156',-0.015,0.225
'27:06.158',-0.040,0.220
'27:06.161',-0.030,0.215
'27:06.164',-0.005,0.235
'27:06.167',0.020,0.235
'27:06.169',0.030,0.230
'27:06.172',0.035,0.220
'27:06.175',0.045,0.205
'27:06.178',0.060,0.190
'27:06.181',0.085,0.215
'27:06.183',0.110,0.215
'27:06.186',0.135,0.200
'27:06.189',0.140,0.190
'27:06.192',0.140,0.150
'27:06.194',0.130,0.150
'27:06.197',0.190,0.170
'27:06.200',0.225,0.170
'27:06.203',0.250,0.170
'27:06.206',0.250,0.170
'27:06.208',0.235,0.145
'27:06.211',0.260,0.165
'27:06.214',0.290,0.175
'27:06.217',0.310,0.185
'27:06.219',0.320,0.180
'27:06.222',0.320,0.160
'27:06.225',0.315,0.165
'27:06.228',0.320,0.165
'27:06.231',0.340,0.185
'27:06.233',0.365,0.215
'27:06.236',0.370,0.210
'27:06.239',0.365,0.195
'27:06.242',0.345,0.185
'27:06.244',0.330,0.195
'27:06.247',0.345,0.215
'27:06.250',0.345,0.240
'27:06.253',0.335,0.225
'27:06.256',0.325,0.215
'27:06.258',0.280,0.215
'27:06.261',0.285,0.210
'27:06.264',0.280,0.235
'27:06.267',0.285,0.245
'27:06.269',0.280,0.230
'27:06.272',0.275,0.225
'27:06.275',0.245,0.220
'27:06.278',0.215,0.215
'27:06.281',0.235,0.230
'27:06.283',0.240,0.240
'27:06.286',0.265,0.250
'27:06.289',0.250,0.225
'27:06.292',0.225,0.200
'27:06.294',0.210,0.210
'27:06.297',0.230,0.215
'27:06.300',0.245,0.225
'27:06.303',0.240,0.205
'27:06.306',0.220,0.185
'27:06.308',0.210,0.155
'27:06.311',0.215,0.160
'27:06.314',0.235,0.170
'27:06.317',0.235,0.180
'27:06.319',0.240,0.165
'27:06.322',0.235,0.145
'27:06.325',0.230,0.140
'27:06.328',0.230,0.140
'27:06.331',0.225,0.145
'27:06.333',0.245,0.145
'27:06.336',0.265,0.140
'27:06.339',0.280,0.095
'27:06.342',0.265,0.095
'27:06.344',0.270,0.080
'27:06.347',0.290,0.100
'27:06.350',0.305,0.090
'27:06.353',0.325,0.105
'27:06.356',0.340,0.090
'27:06.358',0.320,0.075
'27:06.361',0.320,0.080
'27:06.364',0.320,0.100
'27:06.367',0.345,0.125
'27:06.369',0.350,0.110
'27:06.372',0.330,0.090
'27:06.375',0.320,0.075
'27:06.378',0.310,0.075
'27:06.381',0.335,0.080
'27:06.383',0.355,0.085
'27:06.386',0.345,0.075
'27:06.389',0.345,0.040
'27:06.392',0.340,0.040
'27:06.394',0.355,0.045
'27:06.397',0.365,0.070
'27:06.400',0.355,0.065
'27:06.403',0.360,0.075
'27:06.406',0.345,0.045
'27:06.408',0.340,0.055
'27:06.411',0.330,0.050
'27:06.414',0.325,0.085
'27:06.417',0.350,0.100
'27:06.419',0.355,0.105
'27:06.422',0.355,0.090
'27:06.425',0.330,0.105
'27:06.428',0.335,0.115
'27:06.431',0.375,0.170
'27:06.433',0.455,0.200
'27:06.436',0.525,0.220
'27:06.439',0.565,0.235
'27:06.442',0.565,0.265
'27:06.444',0.575,0.295
'27:06.447',0.655,0.345
'27:06.450',0.730,0.380
'27:06.453',0.710,0.375
'27:06.456',0.670,0.370
'27:06.458',0.635,0.350
'27:06.461',0.650,0.305
'27:06.464',0.715,0.275
'27:06.467',0.840,0.210
'27:06.469',1.020,0.105
'27:06.472',1.160,-0.040
'27:06.475',1.205,-0.205
'27:06.478',1.235,-0.325
'27:06.481',1.340,-0.405
'27:06.483',1.415,-0.445
'27:06.486',1.410,-0.490
'27:06.489',1.350,-0.535
'27:06.492',1.295,-0.580
'27:06.494',1.230,-0.560
'27:06.497',1.180,-0.540
'27:06.500',1.100,-0.515
'27:06.503',0.990,-0.490
'27:06.506',0.860,-0.465
'27:06.508',0.730,-0.430
'27:06.511',0.565,-0.375
'27:06.514',0.420,-0.305
'27:06.517',0.325,-0.250
'27:06.519',0.225,-0.215
'27:06.522',0.130,-0.180
'27:06.525',0.080,-0.135
'27:06.528',0.050,-0.100
'27:06.531',0.065,-0.040
'27:06.533',0.085,-0.005
'27:06.536',0.060,-0.005
'27:06.539',0.025,0.005
'27:06.542',0.000,-0.005
'27:06.544',-0.025,0.030
'27:06.547',-0.025,0.065
'27:06.550',-0.015,0.095
'27:06.553',-0.035,0.105
'27:06.556',-0.040,0.105
'27:06.558',-0.075,0.115
'27:06.561',-0.075,0.100
'27:06.564',-0.080,0.140
'27:06.567',-0.060,0.165
'27:06.569',-0.055,0.155
'27:06.572',-0.080,0.145
'27:06.575',-0.110,0.140
'27:06.578',-0.125,0.165
'27:06.581',-0.120,0.185
'27:06.583',-0.105,0.200
'27:06.586',-0.100,0.190
'27:06.589',-0.125,0.180
'27:06.592',-0.110,0.170
'27:06.594',-0.110,0.170
'27:06.597',-0.095,0.200
'27:06.600',-0.095,0.190
'27:06.603',-0.085,0.195
'27:06.606',-0.085,0.165
'27:06.608',-0.090,0.140
'27:06.611',-0.095,0.140
'27:06.614',-0.075,0.155
'27:06.617',-0.070,0.170
'27:06.619',-0.035,0.150
'27:06.622',-0.035,0.135
'27:06.625',-0.060,0.135
'27:06.628',-0.050,0.135
'27:06.631',-0.010,0.135
'27:06.633',0.015,0.150
'27:06.636',0.025,0.155
'27:06.639',0.025,0.100
'27:06.642',0.015,0.105
'27:06.644',0.045,0.075
'27:06.647',0.080,0.085
'27:06.650',0.105,0.070
'27:06.653',0.155,0.040
'27:06.656',0.165,0.005
'27:06.658',0.165,-0.010
'27:06.661',0.175,-0.010
'27:06.664',0.205,-0.010
'27:06.667',0.250,-0.010
'27:06.669',0.255,-0.005
'27:06.672',0.275,-0.025
'27:06.675',0.270,-0.030
'27:06.678',0.270,-0.005
'27:06.681',0.295,0.000
'27:06.683',0.310,0.030
'27:06.686',0.335,0.015
'27:06.689',0.360,0.000
'27:06.692',0.350,-0.015
'27:06.694',0.345,0.000
'27:06.697',0.345,0.025
'27:06.700',0.370,0.040
'27:06.703',0.370,0.040
'27:06.706',0.345,0.030
'27:06.708',0.325,0.030
'27:06.711',0.320,0.040
'27:06.714',0.325,0.070
'27:06.717',0.305,0.100
'27:06.719',0.320,0.115
'27:06.722',0.295,0.105
'27:06.725',0.275,0.085
'27:06.728',0.250,0.115
'27:06.731',0.245,0.135
'27:06.733',0.245,0.170
'27:06.736',0.240,0.170
'27:06.739',0.225,0.145
'27:06.742',0.200,0.165
'27:06.744',0.175,0.170
'27:06.747',0.210,0.190
'27:06.750',0.210,0.215
'27:06.753',0.215,0.210
'27:06.756',0.185,0.210
'27:06.758',0.180,0.195
'27:06.761',0.185,0.200
'27:06.764',0.195,0.220
'27:06.767',0.190,0.225
'27:06.769',0.200,0.210
'27:06.772',0.195,0.205
'27:06.775',0.175,0.170
'27:06.778',0.155,0.160
'27:06.781',0.160,0.170
'27:06.783',0.200,0.165
'27:06.786',0.200,0.145
'27:06.789',0.180,0.125
'27:06.792',0.160,0.110
'27:06.794',0.165,0.115
'27:06.797',0.175,0.110
'27:06.800',0.190,0.120
'27:06.803',0.190,0.105
'27:06.806',0.180,0.085
'27:06.808',0.180,0.050
'27:06.811',0.170,0.055
'27:06.814',0.170,0.055
'27:06.817',0.185,0.070
'27:06.819',0.195,0.080
'27:06.822',0.200,0.070
'27:06.825',0.170,0.060
'27:06.828',0.160,0.075
'27:06.831',0.185,0.095
'27:06.833',0.200,0.100
'27:06.836',0.195,0.120
'27:06.839',0.170,0.085
'27:06.842',0.130,0.080
'27:06.844',0.140,0.080
'27:06.847',0.165,0.090
'27:06.850',0.175,0.120
'27:06.853',0.150,0.105
'27:06.856',0.140,0.090
'27:06.858',0.120,0.085
'27:06.861',0.130,0.100
'27:06.864',0.140,0.120
'27:06.867',0.135,0.120
'27:06.869',0.135,0.125
'27:06.872',0.125,0.110
'27:06.875',0.135,0.085
'27:06.878',0.120,0.115
'27:06.881',0.105,0.125
'27:06.883',0.135,0.145
'27:06.886',0.160,0.140
'27:06.889',0.125,0.135
'27:06.892',0.115,0.125
'27:06.894',0.105,0.130
'27:06.897',0.130,0.155
'27:06.900',0.145,0.175
'27:06.903',0.155,0.165
'27:06.906',0.135,0.170
'27:06.908',0.115,0.155
'27:06.911',0.115,0.160
'27:06.914',0.135,0.180
'27:06.917',0.145,0.195
'27:06.919',0.135,0.200
'27:06.922',0.115,0.185
'27:06.925',0.110,0.185
'27:06.928',0.125,0.190
'27:06.931',0.125,0.200
'27:06.933',0.125,0.220
'27:06.936',0.115,0.220
'27:06.939',0.100,0.210
'27:06.942',0.090,0.195
'27:06.944',0.075,0.200
'27:06.947',0.075,0.200
'27:06.950',0.085,0.195
'27:06.953',0.105,0.180
'27:06.956',0.105,0.155
'27:06.958',0.095,0.130
'27:06.961',0.085,0.115
'27:06.964',0.100,0.120
'27:06.967',0.120,0.105
'27:06.969',0.115,0.100
'27:06.972',0.095,0.055
'27:06.975',0.085,0.025
'27:06.978',0.075,0.035
'27:06.981',0.080,0.030
'27:06.983',0.100,0.045
'27:06.986',0.085,0.025
'27:06.989',0.065,-0.010
'27:06.992',0.060,-0.015
'27:06.994',0.060,-0.030
'27:06.997',0.060,-0.010
'27:07.000',0.065,0.010
'27:07.003',0.070,-0.005
'27:07.006',0.070,-0.005
'27:07.008',0.045,-0.020
'27:07.011',0.040,-0.010
'27:07.014',0.040,0.005
'27:07.017',0.060,0.025
'27:07.019',0.060,0.010
'27:07.022',0.050,0.000
'27:07.025',0.020,-0.015
'27:07.028',0.035,0.005
'27:07.031',0.040,0.030
'27:07.033',0.045,0.050
'27:07.036',0.025,0.015
'27:07.039',0.030,0.025
'27:07.042',0.025,0.030
'27:07.044',0.025,0.040
'27:07.047',0.010,0.055
'27:07.050',0.015,0.085
'27:07.053',0.025,0.085
'27:07.056',0.015,0.075
'27:07.058',0.030,0.065
'27:07.061',0.025,0.095
'27:07.064',0.010,0.095
'27:07.067',0.030,0.125
'27:07.069',0.020,0.130
'27:07.072',0.010,0.110
'27:07.075',-0.015,0.100
'27:07.078',-0.005,0.120
'27:07.081',0.005,0.140
'27:07.083',0.010,0.150
'27:07.086',0.000,0.145
'27:07.089',-0.030,0.145
'27:07.092',-0.035,0.130
'27:07.094',-0.045,0.135
'27:07.097',-0.050,0.150
'27:07.100',-0.035,0.175
'27:07.103',-0.020,0.175
'27:07.106',-0.045,0.155
'27:07.108',-0.075,0.150
'27:07.111',-0.075,0.145
'27:07.114',-0.075,0.165
'27:07.117',-0.045,0.185
'27:07.119',-0.055,0.175
'27:07.122',-0.075,0.165
'27:07.125',-0.090,0.155
'27:07.128',-0.100,0.140
'27:07.131',-0.085,0.155
'27:07.133',-0.075,0.155
'27:07.136',-0.080,0.150
'27:07.139',-0.090,0.115
'27:07.142',-0.125,0.085
'27:07.144',-0.145,0.085
'27:07.147',-0.125,0.100
'27:07.150',-0.105,0.100
'27:07.153',-0.110,0.080
'27:07.156',-0.130,0.055
'27:07.158',-0.140,0.035
'27:07.161',-0.135,0.040
'27:07.164',-0.135,0.065
'27:07.167',-0.115,0.060
'27:07.169',-0.120,0.075
'27:07.172',-0.130,0.060
'27:07.175',-0.130,0.060
'27:07.178',-0.130,0.080
'27:07.181',-0.125,0.105
'27:07.183',-0.110,0.115
'27:07.186',-0.095,0.120
'27:07.189',-0.135,0.110
'27:07.192',-0.150,0.100
'27:07.194',-0.150,0.105
'27:07.197',-0.135,0.135
'27:07.200',-0.115,0.140
'27:07.203',-0.135,0.150
'27:07.206',-0.145,0.125
'27:07.208',-0.155,0.125
'27:07.211',-0.160,0.120
'27:07.214',-0.165,0.140
'27:07.217',-0.145,0.170
'27:07.219',-0.145,0.165
'27:07.222',-0.145,0.150
'27:07.225',-0.175,0.145
'27:07.228',-0.195,0.155
'27:07.231',-0.165,0.170
'27:07.233',-0.160,0.200
'27:07.236',-0.155,0.190
'27:07.239',-0.180,0.175
'27:07.242',-0.200,0.165
'27:07.244',-0.200,0.170
'27:07.247',-0.205,0.190
'27:07.250',-0.185,0.205
'27:07.253',-0.185,0.200
'27:07.256',-0.185,0.195
'27:07.258',-0.195,0.190
'27:07.261',-0.195,0.185
'27:07.264',-0.185,0.180
'27:07.267',-0.185,0.215
'27:07.269',-0.170,0.220
'27:07.272',-0.165,0.175
'27:07.275',-0.175,0.160
'27:07.278',-0.180,0.150
'27:07.281',-0.150,0.155
'27:07.283',-0.125,0.145
'27:07.286',-0.120,0.140
'27:07.289',-0.110,0.125
'27:07.292',-0.075,0.135
'27:07.294',-0.015,0.165
'27:07.297',0.065,0.220
'27:07.300',0.110,0.275
'27:07.303',0.180,0.295
'27:07.306',0.270,0.300
'27:07.308',0.375,0.305
'27:07.311',0.485,0.320
'27:07.314',0.600,0.350
'27:07.317',0.670,0.325
'27:07.319',0.725,0.250
'27:07.322',0.755,0.150
'27:07.325',0.780,0.080
'27:07.328',0.885,0.015
'27:07.331',0.995,-0.055
'27:07.333',1.065,-0.190
'27:07.336',1.100,-0.360
'27:07.339',1.080,-0.510
'27:07.342',1.065,-0.605
'27:07.344',1.110,-0.660
'27:07.347',1.160,-0.700
'27:07.350',1.170,-0.675
'27:07.353',1.115,-0.690
'27:07.356',1.040,-0.690
'27:07.358',0.930,-0.700
'27:07.361',0.780,-0.670
'27:07.364',0.650,-0.620
'27:07.367',0.560,-0.565
'27:07.369',0.435,-0.515
'27:07.372',0.270,-0.480
'27:07.375',0.080,-0.425
'27:07.378',-0.080,-0.345
'27:07.381',-0.210,-0.260
'27:07.383',-0.285,-0.180
'27:07.386',-0.370,-0.115
'27:07.389',-0.455,-0.070
'27:07.392',-0.530,-0.025
'27:07.394',-0.540,0.025
'27:07.397',-0.520,0.055
'27:07.400',-0.520,0.100
'27:07.403',-0.525,0.125
'27:07.406',-0.565,0.130
'27:07.408',-0.600,0.120
'27:07.411',-0.605,0.150
'27:07.414',-0.610,0.170
'27:07.417',-0.600,0.185
'27:07.419',-0.620,0.175
'27:07.422',-0.665,0.180
'27:07.425',-0.715,0.185
'27:07.428',-0.715,0.195
'27:07.431',-0.700,0.200
'27:07.433',-0.695,0.215
'27:07.436',-0.695,0.200
'27:07.439',-0.710,0.185
'27:07.442',-0.745,0.180
'27:07.444',-0.745,0.170
'27:07.447',-0.745,0.190
'27:07.450',-0.735,0.200
'27:07.453',-0.740,0.175
'27:07.456',-0.740,0.150
'27:07.458',-0.750,0.135
'27:07.461',-0.775,0.150
'27:07.464',-0.770,0.150
'27:07.467',-0.725,0.170
'27:07.469',-0.710,0.155
'27:07.472',-0.710,0.140
'27:07.475',-0.725,0.100
'27:07.478',-0.730,0.110
'27:07.481',-0.720,0.130
'27:07.483',-0.680,0.150
'27:07.486',-0.705,0.140
'27:07.489',-0.730,0.150
'27:07.492',-0.710,0.135
'27:07.494',-0.715,0.150
'27:07.497',-0.695,0.160
'27:07.500',-0.695,0.180
'27:07.503',-0.695,0.190
'27:07.506',-0.700,0.170
'27:07.508',-0.695,0.160
'27:07.511',-0.695,0.170
'27:07.514',-0.680,0.185
'27:07.517',-0.660,0.200
'27:07.519',-0.655,0.205
'27:07.522',-0.650,0.195
'27:07.525',-0.655,0.195
'27:07.528',-0.660,0.215
'27:07.531',-0.645,0.235
'27:07.533',-0.615,0.255
'27:07.536',-0.605,0.240
'27:07.539',-0.620,0.250
'27:07.542',-0.620,0.235
'27:07.544',-0.615,0.250
'27:07.547',-0.585,0.280
'27:07.550',-0.565,0.290
'27:07.553',-0.565,0.295
'27:07.556',-0.550,0.290
'27:07.558',-0.555,0.295
'27:07.561',-0.545,0.300
'27:07.564',-0.505,0.325
'27:07.567',-0.490,0.335
'27:07.569',-0.485,0.325
'27:07.572',-0.470,0.295
'27:07.575',-0.470,0.275
'27:07.578',-0.480,0.295
'27:07.581',-0.470,0.290
'27:07.583',-0.425,0.285
'27:07.586',-0.410,0.285
'27:07.589',-0.405,0.250
'27:07.592',-0.400,0.240
'27:07.594',-0.385,0.235
'27:07.597',-0.360,0.250
'27:07.600',-0.320,0.245
'27:07.603',-0.320,0.225
'27:07.606',-0.315,0.205
'27:07.608',-0.325,0.195
'27:07.611',-0.310,0.185
'27:07.614',-0.315,0.220
'27:07.617',-0.315,0.210
'27:07.619',-0.315,0.210
'27:07.622',-0.320,0.175
'27:07.625',-0.340,0.160
'27:07.628',-0.360,0.170
'27:07.631',-0.370,0.180
'27:07.633',-0.350,0.185
'27:07.636',-0.355,0.160
'27:07.639',-0.380,0.145
'27:07.642',-0.395,0.145
'27:07.644',-0.400,0.155
'27:07.647',-0.380,0.170
'27:07.650',-0.375,0.180
'27:07.653',-0.375,0.175
'27:07.656',-0.410,0.170
'27:07.658',-0.400,0.155
'27:07.661',-0.390,0.155
'27:07.664',-0.395,0.185
'27:07.667',-0.385,0.205
'27:07.669',-0.385,0.200
'27:07.672',-0.385,0.180
'27:07.675',-0.405,0.175
'27:07.678',-0.420,0.190
'27:07.681',-0.415,0.210
'27:07.683',-0.385,0.235
'27:07.686',-0.395,0.240
'27:07.689',-0.410,0.225
'27:07.692',-0.420,0.210
'27:07.694',-0.415,0.210
'27:07.697',-0.400,0.225
'27:07.700',-0.395,0.225
'27:07.703',-0.400,0.220
'27:07.706',-0.405,0.220
'27:07.708',-0.395,0.195
'27:07.711',-0.410,0.190
'27:07.714',-0.400,0.205
'27:07.717',-0.390,0.205
'27:07.719',-0.380,0.195
'27:07.722',-0.400,0.180
'27:07.725',-0.435,0.170
'27:07.728',-0.430,0.165
'27:07.731',-0.400,0.175
'27:07.733',-0.370,0.180
'27:07.736',-0.370,0.170
'27:07.739',-0.375,0.145
'27:07.742',-0.350,0.145
'27:07.744',-0.295,0.130
'27:07.747',-0.200,0.155
'27:07.750',-0.100,0.185
'27:07.753',-0.055,0.210
'27:07.756',-0.075,0.250
'27:07.758',-0.165,0.300
'27:07.761',-0.275,0.420
'27:07.764',-0.385,0.540
'27:07.767',-0.470,0.625
'27:07.769',-0.525,0.660
'27:07.772',-0.595,0.635
'27:07.775',-0.730,0.580
'27:07.778',-0.970,0.475
'27:07.781',-1.215,0.345
'27:07.783',-1.360,0.185
'27:07.786',-1.420,0.000
'27:07.789',-1.385,-0.175
'27:07.792',-1.315,-0.325
'27:07.794',-1.275,-0.430
'27:07.797',-1.175,-0.470
'27:07.800',-1.050,-0.480
'27:07.803',-0.900,-0.500
'27:07.806',-0.730,-0.525
'27:07.808',-0.545,-0.570
'27:07.811',-0.370,-0.585
'27:07.814',-0.290,-0.575
'27:07.817',-0.280,-0.545
'27:07.819',-0.290,-0.530
'27:07.822',-0.275,-0.540
'27:07.825',-0.280,-0.510
'27:07.828',-0.350,-0.465
'27:07.831',-0.430,-0.395
'27:07.833',-0.475,-0.320
'27:07.836',-0.505,-0.270
'27:07.839',-0.580,-0.235
'27:07.842',-0.645,-0.175
'27:07.844',-0.635,-0.130
'27:07.847',-0.560,-0.070
'27:07.850',-0.505,-0.025
'27:07.853',-0.490,-0.015
'27:07.856',-0.500,-0.005
'27:07.858',-0.510,-0.010
'27:07.861',-0.505,0.020
'27:07.864',-0.515,0.060
'27:07.867',-0.505,0.075
'27:07.869',-0.490,0.065
'27:07.872',-0.495,0.045
'27:07.875',-0.525,0.035
'27:07.878',-0.520,0.035
'27:07.881',-0.505,0.070
'27:07.883',-0.485,0.085
'27:07.886',-0.485,0.080
'27:07.889',-0.480,0.080
'27:07.892',-0.475,0.075
'27:07.894',-0.470,0.090
'27:07.897',-0.455,0.110
'27:07.900',-0.425,0.120
'27:07.903',-0.405,0.095
'27:07.906',-0.405,0.085
'27:07.908',-0.390,0.075
'27:07.911',-0.360,0.090
'27:07.914',-0.325,0.100
'27:07.917',-0.290,0.115
'27:07.919',-0.270,0.110
'27:07.922',-0.250,0.115
'27:07.925',-0.235,0.090
'27:07.928',-0.210,0.105
'27:07.931',-0.190,0.105
'27:07.933',-0.155,0.120
'27:07.936',-0.105,0.120
'27:07.939',-0.085,0.105
'27:07.942',-0.085,0.100
'27:07.944',-0.055,0.105
'27:07.947',-0.005,0.120
'27:07.950',0.055,0.140
'27:07.953',0.105,0.110
'27:07.956',0.110,0.095
'27:07.958',0.130,0.095
'27:07.961',0.150,0.105
'27:07.964',0.185,0.105
'27:07.967',0.235,0.145
'27:07.969',0.260,0.125
'27:07.972',0.270,0.115
'27:07.975',0.290,0.100
'27:07.978',0.305,0.100
'27:07.981',0.335,0.115
'27:07.983',0.370,0.110
'27:07.986',0.400,0.095
'27:07.989',0.420,0.075
'27:07.992',0.400,0.065
'27:07.994',0.410,0.065
'27:07.997',0.430,0.075
'27:08.000',0.450,0.085
'27:08.003',0.450,0.085
'27:08.006',0.430,0.070
'27:08.008',0.405,0.075
'27:08.011',0.395,0.095
'27:08.014',0.370,0.130
'27:08.017',0.360,0.155
'27:08.019',0.315,0.155
'27:08.022',0.280,0.155
'27:08.025',0.250,0.145
'27:08.028',0.210,0.170
'27:08.031',0.180,0.185
'27:08.033',0.165,0.205
'27:08.036',0.135,0.215
'27:08.039',0.100,0.195
'27:08.042',0.045,0.180
'27:08.044',0.000,0.185
'27:08.047',-0.015,0.205
'27:08.050',-0.020,0.215
'27:08.053',-0.055,0.225
'27:08.056',-0.090,0.200
'27:08.058',-0.110,0.210
'27:08.061',-0.140,0.210
'27:08.064',-0.150,0.230
'27:08.067',-0.150,0.250
'27:08.069',-0.160,0.235
'27:08.072',-0.180,0.220
'27:08.075',-0.205,0.195
'27:08.078',-0.240,0.210
'27:08.081',-0.240,0.210
'27:08.083',-0.245,0.215
'27:08.086',-0.245,0.210
'27:08.089',-0.270,0.175
'27:08.092',-0.295,0.145
'27:08.094',-0.295,0.150
'27:08.097',-0.300,0.165
'27:08.100',-0.295,0.170
'27:08.103',-0.295,0.155
'27:08.106',-0.295,0.135
'27:08.108',-0.325,0.115
'27:08.111',-0.340,0.110
'27:08.114',-0.340,0.120
'27:08.117',-0.320,0.120
'27:08.119',-0.325,0.120
'27:08.122',-0.340,0.090
'27:08.125',-0.360,0.080
'27:08.128',-0.350,0.065
'27:08.131',-0.350,0.070
'27:08.133',-0.345,0.075
'27:08.136',-0.335,0.055
'27:08.139',-0.350,0.030
'27:08.142',-0.365,0.015
'27:08.144',-0.385,0.005
'27:08.147',-0.375,0.015
'27:08.150',-0.355,0.025
'27:08.153',-0.340,0.010
'27:08.156',-0.350,-0.005
'27:08.158',-0.360,-0.010
'27:08.161',-0.375,-0.010
'27:08.164',-0.360,0.015
'27:08.167',-0.365,0.045
'27:08.169',-0.355,0.050
'27:08.172',-0.365,0.040
'27:08.175',-0.355,0.040
'27:08.178',-0.390,0.060
'27:08.181',-0.385,0.085
'27:08.183',-0.360,0.125
'27:08.186',-0.335,0.125
'27:08.189',-0.345,0.125
'27:08.192',-0.365,0.120
'27:08.194',-0.355,0.125
'27:08.197',-0.340,0.160
'27:08.200',-0.340,0.170
'27:08.203',-0.340,0.155
'27:08.206',-0.325,0.130
'27:08.208',-0.340,0.130
'27:08.211',-0.340,0.135
'27:08.214',-0.325,0.155
'27:08.217',-0.310,0.145
'27:08.219',-0.290,0.160
'27:08.222',-0.295,0.150
'27:08.225',-0.315,0.120
'27:08.228',-0.320,0.120
'27:08.231',-0.310,0.150
'27:08.233',-0.300,0.145
'27:08.236',-0.300,0.140
'27:08.239',-0.325,0.120
'27:08.242',-0.330,0.100
'27:08.244',-0.325,0.110
'27:08.247',-0.320,0.125
'27:08.250',-0.310,0.130
'27:08.253',-0.300,0.125
'27:08.256',-0.320,0.100
'27:08.258',-0.350,0.080
'27:08.261',-0.340,0.095
'27:08.264',-0.335,0.105
'27:08.267',-0.310,0.095
'27:08.269',-0.320,0.115
'27:08.272',-0.325,0.090
'27:08.275',-0.345,0.065
'27:08.278',-0.350,0.065
'27:08.281',-0.335,0.050
'27:08.283',-0.320,0.045
'27:08.286',-0.315,0.025
'27:08.289',-0.325,-0.010
'27:08.292',-0.345,-0.040
'27:08.294',-0.350,-0.040
'27:08.297',-0.330,-0.050
'27:08.300',-0.310,-0.040
'27:08.303',-0.320,-0.050
'27:08.306',-0.330,-0.065
'27:08.308',-0.340,-0.070
'27:08.311',-0.355,-0.060
'27:08.314',-0.355,-0.045
'27:08.317',-0.335,-0.020
'27:08.319',-0.315,-0.015
'27:08.322',-0.315,-0.020
'27:08.325',-0.335,-0.030
'27:08.328',-0.350,-0.020
'27:08.331',-0.345,0.015
'27:08.333',-0.325,0.035
'27:08.336',-0.330,0.025
'27:08.339',-0.350,0.030
'27:08.342',-0.355,0.030
'27:08.344',-0.350,0.050
'27:08.347',-0.345,0.070
'27:08.350',-0.335,0.100
'27:08.353',-0.335,0.090
'27:08.356',-0.350,0.090
'27:08.358',-0.370,0.100
'27:08.361',-0.360,0.100
'27:08.364',-0.350,0.140
'27:08.367',-0.340,0.155
'27:08.369',-0.335,0.160
'27:08.372',-0.365,0.145
'27:08.375',-0.365,0.140
'27:08.378',-0.370,0.140
'27:08.381',-0.360,0.150
'27:08.383',-0.360,0.165
'27:08.386',-0.370,0.150
'27:08.389',-0.380,0.130
'27:08.392',-0.375,0.120
'27:08.394',-0.395,0.105
'27:08.397',-0.395,0.115
'27:08.400',-0.385,0.135
'27:08.403',-0.370,0.125
'27:08.406',-0.385,0.105
'27:08.408',-0.405,0.085
'27:08.411',-0.420,0.100
'27:08.414',-0.400,0.125
'27:08.417',-0.385,0.150
'27:08.419',-0.390,0.140
'27:08.422',-0.390,0.140
'27:08.425',-0.405,0.115
'27:08.428',-0.410,0.120
'27:08.431',-0.400,0.145
'27:08.433',-0.400,0.145
'27:08.436',-0.415,0.120
'27:08.439',-0.435,0.100
'27:08.442',-0.430,0.095
'27:08.444',-0.425,0.090
'27:08.447',-0.425,0.100
'27:08.450',-0.415,0.100
'27:08.453',-0.425,0.065
'27:08.456',-0.420,0.045
'27:08.458',-0.425,0.025
'27:08.461',-0.435,0.030
'27:08.464',-0.430,0.045
'27:08.467',-0.425,0.065
'27:08.469',-0.425,0.040
'27:08.472',-0.420,0.045
'27:08.475',-0.445,0.025
'27:08.478',-0.440,0.035
'27:08.481',-0.435,0.060
'27:08.483',-0.425,0.070
'27:08.486',-0.430,0.060
'27:08.489',-0.440,0.050
'27:08.492',-0.455,0.045
'27:08.494',-0.460,0.050
'27:08.497',-0.465,0.080
'27:08.500',-0.470,0.100
'27:08.503',-0.455,0.080
'27:08.506',-0.460,0.075
'27:08.508',-0.465,0.070
'27:08.511',-0.470,0.090
'27:08.514',-0.460,0.110
'27:08.517',-0.450,0.135
'27:08.519',-0.430,0.130
'27:08.522',-0.450,0.145
'27:08.525',-0.445,0.150
'27:08.528',-0.430,0.180
'27:08.531',-0.365,0.230
'27:08.533',-0.275,0.270
'27:08.536',-0.200,0.295
'27:08.539',-0.140,0.335
'27:08.542',-0.070,0.365
'27:08.544',0.015,0.410
'27:08.547',0.080,0.435
'27:08.550',0.125,0.475
'27:08.553',0.120,0.490
'27:08.556',0.035,0.505
'27:08.558',-0.075,0.480
'27:08.561',-0.175,0.460
'27:08.564',-0.200,0.430
'27:08.567',-0.150,0.385
'27:08.569',-0.080,0.300
'27:08.572',-0.020,0.180
'27:08.575',0.005,0.020
'27:08.578',0.030,-0.120
'27:08.581',0.115,-0.195
'27:08.583',0.225,-0.270
'27:08.586',0.285,-0.330
'27:08.589',0.280,-0.370
'27:08.592',0.225,-0.430
'27:08.594',0.115,-0.455
'27:08.597',0.050,-0.430
'27:08.600',-0.005,-0.400
'27:08.603',-0.090,-0.385
'27:08.606',-0.245,-0.340
'27:08.608',-0.420,-0.310
'27:08.611',-0.510,-0.245
'27:08.614',-0.560,-0.200
'27:08.617',-0.590,-0.140
'27:08.619',-0.630,-0.090
'27:08.622',-0.650,-0.060
'27:08.625',-0.665,-0.055
'27:08.628',-0.660,-0.025
'27:08.631',-0.675,-0.010
'27:08.633',-0.695,0.020
'27:08.636',-0.705,0.025
'27:08.639',-0.720,0.030
'27:08.642',-0.750,0.025
'27:08.644',-0.765,0.035
'27:08.647',-0.770,0.060
'27:08.650',-0.760,0.090
'27:08.653',-0.765,0.095
'27:08.656',-0.790,0.095
'27:08.658',-0.795,0.075
'27:08.661',-0.800,0.095
'27:08.664',-0.815,0.125
'27:08.667',-0.785,0.145
'27:08.669',-0.820,0.130
'27:08.672',-0.805,0.115
'27:08.675',-0.820,0.120
'27:08.678',-0.825,0.135
'27:08.681',-0.830,0.145
'27:08.683',-0.820,0.185
'27:08.686',-0.820,0.170
'27:08.689',-0.835,0.155
'27:08.692',-0.850,0.155
'27:08.694',-0.840,0.170
'27:08.697',-0.835,0.195
'27:08.700',-0.825,0.200
'27:08.703',-0.805,0.200
'27:08.706',-0.805,0.195
'27:08.708',-0.805,0.190
'27:08.711',-0.800,0.205
'27:08.714',-0.785,0.215
'27:08.717',-0.750,0.215
'27:08.719',-0.755,0.200
'27:08.722',-0.765,0.180
'27:08.725',-0.770,0.180
'27:08.728',-0.775,0.180
'27:08.731',-0.760,0.160
'27:08.733',-0.735,0.160
'27:08.736',-0.730,0.125
'27:08.739',-0.740,0.085
'27:08.742',-0.750,0.075
'27:08.744',-0.745,0.080
'27:08.747',-0.745,0.090
'27:08.750',-0.720,0.120
'27:08.753',-0.700,0.105
'27:08.756',-0.695,0.105
'27:08.758',-0.690,0.105
'27:08.761',-0.700,0.100
'27:08.764',-0.685,0.130
'27:08.767',-0.660,0.150
'27:08.769',-0.645,0.135
'27:08.772',-0.655,0.135
'27:08.775',-0.640,0.125
'27:08.778',-0.635,0.150
'27:08.781',-0.630,0.175
'27:08.783',-0.620,0.200
'27:08.786',-0.605,0.185
'27:08.789',-0.585,0.160
'27:08.792',-0.595,0.160
'27:08.794',-0.585,0.170
'27:08.797',-0.565,0.190
'27:08.800',-0.525,0.210
'27:08.803',-0.505,0.205
'27:08.806',-0.535,0.195
'27:08.808',-0.550,0.205
'27:08.811',-0.550,0.195
'27:08.814',-0.520,0.230
'27:08.817',-0.530,0.240
'27:08.819',-0.525,0.235
'27:08.822',-0.530,0.225
'27:08.825',-0.560,0.220
'27:08.828',-0.585,0.215
'27:08.831',-0.580,0.240
'27:08.833',-0.580,0.255
'27:08.836',-0.585,0.245
'27:08.839',-0.610,0.235
'27:08.842',-0.620,0.215
'27:08.844',-0.650,0.230
'27:08.847',-0.630,0.245
'27:08.850',-0.615,0.250
'27:08.853',-0.620,0.250
'27:08.856',-0.625,0.195
'27:08.858',-0.645,0.215
'27:08.861',-0.650,0.205
'27:08.864',-0.640,0.205
'27:08.867',-0.645,0.225
'27:08.869',-0.640,0.210
'27:08.872',-0.645,0.190
'27:08.875',-0.670,0.160
'27:08.878',-0.665,0.165
'27:08.881',-0.650,0.160
'27:08.883',-0.610,0.150
'27:08.886',-0.620,0.135
'27:08.889',-0.625,0.120
'27:08.892',-0.615,0.080
'27:08.894',-0.610,0.070
'27:08.897',-0.615,0.080
'27:08.900',-0.580,0.085
'27:08.903',-0.580,0.060
'27:08.906',-0.590,0.045
'27:08.908',-0.590,0.030
'27:08.911',-0.585,0.040
'27:08.914',-0.565,0.075
'27:08.917',-0.540,0.075
'27:08.919',-0.540,0.075
'27:08.922',-0.555,0.065
'27:08.925',-0.540,0.065
'27:08.928',-0.530,0.070
'27:08.931',-0.530,0.105
'27:08.933',-0.530,0.120
'27:08.936',-0.515,0.105
'27:08.939',-0.520,0.105
'27:08.942',-0.550,0.085
'27:08.944',-0.550,0.120
'27:08.947',-0.540,0.125
'27:08.950',-0.525,0.135
'27:08.953',-0.525,0.145
'27:08.956',-0.560,0.125
'27:08.958',-0.590,0.105
'27:08.961',-0.575,0.135
'27:08.964',-0.575,0.150
'27:08.967',-0.570,0.175
'27:08.969',-0.565,0.160
'27:08.972',-0.565,0.140
'27:08.975',-0.565,0.125
'27:08.978',-0.570,0.130
'27:08.981',-0.575,0.145
'27:08.983',-0.560,0.165
'27:08.986',-0.560,0.155
'27:08.989',-0.570,0.135
'27:08.992',-0.585,0.130
'27:08.994',-0.595,0.155
'27:08.997',-0.585,0.160
'27:09.000',-0.560,0.180
'27:09.003',-0.565,0.160
'27:09.006',-0.595,0.145
'27:09.008',-0.605,0.135
'27:09.011',-0.595,0.135
'27:09.014',-0.595,0.130
'27:09.017',-0.585,0.130
'27:09.019',-0.585,0.120
'27:09.022',-0.585,0.100
'27:09.025',-0.595,0.090
'27:09.028',-0.630,0.090
'27:09.031',-0.615,0.090
'27:09.033',-0.605,0.105
'27:09.036',-0.600,0.100
'27:09.039',-0.620,0.070
'27:09.042',-0.625,0.040
'27:09.044',-0.630,0.060
'27:09.047',-0.615,0.070
'27:09.050',-0.615,0.060
'27:09.053',-0.630,0.040
'27:09.056',-0.635,0.015
'27:09.058',-0.625,-0.010
'27:09.061',-0.630,0.000
'27:09.064',-0.620,0.005
'27:09.067',-0.600,0.015
'27:09.069',-0.590,0.005
'27:09.072',-0.595,0.005
'27:09.075',-0.620,-0.010
'27:09.078',-0.630,0.000
'27:09.081',-0.625,0.035
'27:09.083',-0.600,0.040
'27:09.086',-0.600,0.055
'27:09.089',-0.615,0.050
'27:09.092',-0.620,0.040
'27:09.094',-0.620,0.075
'27:09.097',-0.635,0.095
'27:09.100',-0.615,0.100
'27:09.103',-0.585,0.090
'27:09.106',-0.600,0.070
'27:09.108',-0.635,0.075
'27:09.111',-0.625,0.080
'27:09.114',-0.580,0.105
'27:09.117',-0.560,0.110
'27:09.119',-0.560,0.095
'27:09.122',-0.585,0.095
'27:09.125',-0.575,0.090
'27:09.128',-0.565,0.100
'27:09.131',-0.575,0.105
'27:09.133',-0.550,0.135
'27:09.136',-0.545,0.125
'27:09.139',-0.555,0.120
'27:09.142',-0.565,0.115
'27:09.144',-0.565,0.130
'27:09.147',-0.540,0.150
'27:09.150',-0.515,0.170
'27:09.153',-0.520,0.180
'27:09.156',-0.530,0.175
'27:09.158',-0.520,0.185
'27:09.161',-0.470,0.225
'27:09.164',-0.395,0.270
'27:09.167',-0.315,0.305
'27:09.169',-0.240,0.330
'27:09.172',-0.175,0.315
'27:09.175',-0.115,0.310
'27:09.178',-0.040,0.320
'27:09.181',0.055,0.325
'27:09.183',0.140,0.305
'27:09.186',0.190,0.260
'27:09.189',0.275,0.155
'27:09.192',0.340,0.050
'27:09.194',0.440,-0.030
'27:09.197',0.580,-0.105
'27:09.200',0.665,-0.220
'27:09.203',0.715,-0.355
'27:09.206',0.730,-0.530
'27:09.208',0.760,-0.620
'27:09.211',0.780,-0.670
'27:09.214',0.770,-0.670
'27:09.217',0.725,-0.670
'27:09.219',0.620,-0.660
'27:09.222',0.460,-0.650
'27:09.225',0.350,-0.625
'27:09.228',0.245,-0.575
'27:09.231',0.105,-0.510
'27:09.233',-0.040,-0.415
'27:09.236',-0.245,-0.360
'27:09.239',-0.420,-0.300
'27:09.242',-0.520,-0.245
'27:09.244',-0.595,-0.185
'27:09.247',-0.625,-0.095
'27:09.250',-0.605,-0.035
'27:09.253',-0.605,-0.025
'27:09.256',-0.635,-0.025
'27:09.258',-0.675,-0.020
'27:09.261',-0.695,0.005
'27:09.264',-0.675,0.035
'27:09.267',-0.660,0.055
'27:09.269',-0.655,0.050
'27:09.272',-0.665,0.055
'27:09.275',-0.680,0.055
'27:09.278',-0.690,0.085
'27:09.281',-0.690,0.095
'27:09.283',-0.675,0.110
'27:09.286',-0.685,0.120
'27:09.289',-0.695,0.120
'27:09.292',-0.705,0.125
'27:09.294',-0.695,0.120
'27:09.297',-0.700,0.130
'27:09.300',-0.680,0.145
'27:09.303',-0.680,0.140
'27:09.306',-0.675,0.110
'27:09.308',-0.685,0.115
'27:09.311',-0.695,0.110
'27:09.314',-0.680,0.110
'27:09.317',-0.645,0.140
'27:09.319',-0.625,0.130
'27:09.322',-0.635,0.110
'27:09.325',-0.635,0.095
'27:09.328',-0.630,0.110
'27:09.331',-0.610,0.130
'27:09.333',-0.585,0.130
'27:09.336',-0.575,0.110
'27:09.339',-0.585,0.095
'27:09.342',-0.585,0.090
'27:09.344',-0.575,0.085
'27:09.347',-0.545,0.075
'27:09.350',-0.500,0.085
'27:09.353',-0.470,0.070
'27:09.356',-0.470,0.050
'27:09.358',-0.480,0.050
'27:09.361',-0.460,0.055
'27:09.364',-0.420,0.070
'27:09.367',-0.385,0.075
'27:09.369',-0.375,0.060
'27:09.372',-0.375,0.045
'27:09.375',-0.365,0.025
'27:09.378',-0.355,0.020
'27:09.381',-0.325,0.045
'27:09.383',-0.295,0.060
'27:09.386',-0.265,0.075
'27:09.389',-0.235,0.055
'27:09.392',-0.245,0.055
'27:09.394',-0.240,0.075
'27:09.397',-0.220,0.105
'27:09.400',-0.180,0.125
'27:09.403',-0.160,0.115
'27:09.406',-0.155,0.095
'27:09.408',-0.170,0.095
'27:09.411',-0.150,0.105
'27:09.414',-0.125,0.115
'27:09.417',-0.110,0.140
'27:09.419',-0.100,0.135
'27:09.422',-0.150,0.130
'27:09.425',-0.135,0.130
'27:09.428',-0.135,0.135
'27:09.431',-0.130,0.150
'27:09.433',-0.140,0.160
'27:09.436',-0.150,0.150
'27:09.439',-0.165,0.150
'27:09.442',-0.180,0.160
'27:09.444',-0.195,0.160
'27:09.447',-0.210,0.170
'27:09.450',-0.230,0.195
'27:09.453',-0.225,0.195
'27:09.456',-0.250,0.170
'27:09.458',-0.270,0.165
'27:09.461',-0.270,0.200
'27:09.464',-0.265,0.225
'27:09.467',-0.250,0.225
'27:09.469',-0.255,0.210
'27:09.472',-0.285,0.185
'27:09.475',-0.300,0.165
'27:09.478',-0.310,0.170
'27:09.481',-0.285,0.150
'27:09.483',-0.285,0.155
'27:09.486',-0.290,0.135
'27:09.489',-0.325,0.090
'27:09.492',-0.325,0.065
'27:09.494',-0.340,0.070
'27:09.497',-0.350,0.075
'27:09.500',-0.330,0.085
'27:09.503',-0.330,0.075
'27:09.506',-0.335,0.075
'27:09.508',-0.365,0.060
'27:09.511',-0.360,0.065
'27:09.514',-0.350,0.070
'27:09.517',-0.320,0.075
'27:09.519',-0.335,0.065
'27:09.522',-0.365,0.035
'27:09.525',-0.375,0.035
'27:09.528',-0.360,0.035
'27:09.531',-0.325,0.050
'27:09.533',-0.320,0.050
'27:09.536',-0.320,0.045
'27:09.539',-0.340,0.040
'27:09.542',-0.335,0.030
'27:09.544',-0.350,0.040
'27:09.547',-0.345,0.055
'27:09.550',-0.330,0.070
'27:09.553',-0.310,0.070
'27:09.556',-0.325,0.065
'27:09.558',-0.335,0.065
'27:09.561',-0.345,0.045
'27:09.564',-0.315,0.085
'27:09.567',-0.305,0.100
'27:09.569',-0.305,0.110
'27:09.572',-0.315,0.090
'27:09.575',-0.320,0.080
'27:09.578',-0.320,0.085
'27:09.581',-0.310,0.125
'27:09.583',-0.290,0.120
'27:09.586',-0.280,0.130
'27:09.589',-0.280,0.130
'27:09.592',-0.275,0.125
'27:09.594',-0.270,0.135
'27:09.597',-0.245,0.170
'27:09.600',-0.230,0.175
'27:09.603',-0.215,0.175
'27:09.606',-0.215,0.155
'27:09.608',-0.240,0.150
'27:09.611',-0.235,0.160
'27:09.614',-0.205,0.175
'27:09.617',-0.175,0.170
'27:09.619',-0.190,0.175
'27:09.622',-0.215,0.150
'27:09.625',-0.220,0.140
'27:09.628',-0.210,0.150
'27:09.631',-0.210,0.145
'27:09.633',-0.200,0.155
'27:09.636',-0.190,0.150
'27:09.639',-0.195,0.130
'27:09.642',-0.200,0.100
'27:09.644',-0.215,0.135
'27:09.647',-0.205,0.140
'27:09.650',-0.195,0.155
'27:09.653',-0.180,0.135
'27:09.656',-0.215,0.135
'27:09.658',-0.200,0.115
'27:09.661',-0.185,0.125
'27:09.664',-0.170,0.105
'27:09.667',-0.170,0.090
'27:09.669',-0.170,0.075
'27:09.672',-0.175,0.040
'27:09.675',-0.185,0.010
'27:09.678',-0.200,0.010
'27:09.681',-0.190,0.015
'27:09.683',-0.180,0.030
'27:09.686',-0.165,0.020
'27:09.689',-0.195,0.000
'27:09.692',-0.200,0.000
'27:09.694',-0.200,0.015
'27:09.697',-0.185,0.010
'27:09.700',-0.190,0.030
'27:09.703',-0.190,0.020
'27:09.706',-0.205,0.010
'27:09.708',-0.210,0.025
'27:09.711',-0.200,0.035
'27:09.714',-0.190,0.060
'27:09.717',-0.180,0.065
'27:09.719',-0.160,0.070
'27:09.722',-0.180,0.045
'27:09.725',-0.180,0.050
'27:09.728',-0.185,0.055
'27:09.731',-0.165,0.085
'27:09.733',-0.155,0.095
'27:09.736',-0.160,0.095
'27:09.739',-0.160,0.075
'27:09.742',-0.190,0.065
'27:09.744',-0.180,0.080
'27:09.747',-0.170,0.090
'27:09.750',-0.150,0.115
'27:09.753',-0.145,0.100
'27:09.756',-0.150,0.090
'27:09.758',-0.175,0.060
'27:09.761',-0.180,0.090
'27:09.764',-0.140,0.105
'27:09.767',-0.125,0.115
'27:09.769',-0.145,0.100
'27:09.772',-0.165,0.095
'27:09.775',-0.160,0.055
'27:09.778',-0.145,0.090
'27:09.781',-0.125,0.090
'27:09.783',-0.115,0.095
'27:09.786',-0.095,0.075
'27:09.789',-0.090,0.075
'27:09.792',-0.105,0.040
'27:09.794',-0.095,0.015
'27:09.797',-0.080,0.035
'27:09.800',-0.035,0.035
'27:09.803',-0.030,0.030
'27:09.806',-0.055,0.020
'27:09.808',-0.060,0.010
'27:09.811',-0.060,0.015
'27:09.814',-0.030,0.025
'27:09.817',-0.025,0.045
'27:09.819',-0.020,0.020
'27:09.822',-0.020,-0.010
'27:09.825',-0.040,-0.025
'27:09.828',-0.050,-0.025
'27:09.831',-0.040,-0.005
'27:09.833',-0.025,-0.010
'27:09.836',-0.030,0.005
'27:09.839',-0.065,-0.005
'27:09.842',-0.080,-0.025
'27:09.844',-0.075,-0.015
'27:09.847',-0.055,0.015
'27:09.850',-0.065,0.020
'27:09.853',-0.070,0.010
'27:09.856',-0.065,0.005
'27:09.858',-0.080,0.000
'27:09.861',-0.070,0.010
'27:09.864',-0.065,0.035
'27:09.867',-0.045,0.055
'27:09.869',-0.035,0.060
'27:09.872',-0.045,0.065
'27:09.875',-0.070,0.065
'27:09.878',-0.065,0.075
'27:09.881',-0.035,0.105
'27:09.883',-0.020,0.130
'27:09.886',-0.005,0.115
'27:09.889',-0.020,0.115
'27:09.892',-0.035,0.110
'27:09.894',-0.020,0.115
'27:09.897',-0.010,0.130
'27:09.900',0.005,0.145
'27:09.903',0.010,0.150
'27:09.906',0.010,0.125
'27:09.908',0.000,0.125
'27:09.911',-0.005,0.125
'27:09.914',0.010,0.145
'27:09.917',0.050,0.155
'27:09.919',0.030,0.145
'27:09.922',0.020,0.130
'27:09.925',0.025,0.120
'27:09.928',0.015,0.130
'27:09.931',0.020,0.140
'27:09.933',0.030,0.155
'27:09.936',0.045,0.150
'27:09.939',0.040,0.125
'27:09.942',0.040,0.115
'27:09.944',0.040,0.110
'27:09.947',0.040,0.140
'27:09.950',0.065,0.140
'27:09.953',0.080,0.135
'27:09.956',0.075,0.120
'27:09.958',0.055,0.115
'27:09.961',0.075,0.130
'27:09.964',0.105,0.140
'27:09.967',0.125,0.140
'27:09.969',0.115,0.115
'27:09.972',0.110,0.075
'27:09.975',0.125,0.035
'27:09.978',0.140,0.015
'27:09.981',0.150,-0.010
'27:09.983',0.165,-0.020
'27:09.986',0.165,-0.070
'27:09.989',0.160,-0.095
'27:09.992',0.140,-0.115
'27:09.994',0.130,-0.100
'27:09.997',0.120,-0.095
'27:10.000',0.130,-0.060
'27:10.003',0.155,-0.095
'27:10.006',0.145,-0.100
'27:10.008',0.125,-0.105
'27:10.011',0.120,-0.105
'27:10.014',0.150,-0.075
'27:10.017',0.160,-0.065
'27:10.019',0.155,-0.070
'27:10.022',0.140,-0.065
'27:10.025',0.120,-0.075
'27:10.028',0.135,-0.060
'27:10.031',0.140,-0.040
'27:10.033',0.150,-0.040
'27:10.036',0.150,-0.025
'27:10.039',0.150,-0.025
'27:10.042',0.145,-0.035
'27:10.044',0.135,-0.015
'27:10.047',0.145,0.005
'27:10.050',0.170,0.015
'27:10.053',0.205,0.025
'27:10.056',0.195,0.020
'27:10.058',0.190,0.025
'27:10.061',0.185,0.045
'27:10.064',0.195,0.085
'27:10.067',0.195,0.080
'27:10.069',0.195,0.085
'27:10.072',0.190,0.085
'27:10.075',0.185,0.090
'27:10.078',0.180,0.080
'27:10.081',0.175,0.110
'27:10.083',0.195,0.110
'27:10.086',0.200,0.120
'27:10.089',0.195,0.095
'27:10.092',0.175,0.085
'27:10.094',0.170,0.095
'27:10.097',0.190,0.110
'27:10.100',0.205,0.110
'27:10.103',0.200,0.105
'27:10.106',0.185,0.080
'27:10.108',0.165,0.065
'27:10.111',0.180,0.090
'27:10.114',0.185,0.090
'27:10.117',0.205,0.095
'27:10.119',0.195,0.085
'27:10.122',0.195,0.065
'27:10.125',0.185,0.045
'27:10.128',0.175,0.035
'27:10.131',0.200,0.045
'27:10.133',0.215,0.065
'27:10.136',0.230,0.035
'27:10.139',0.200,-0.005
'27:10.142',0.180,-0.025
'27:10.144',0.180,-0.030
'27:10.147',0.190,-0.050
'27:10.150',0.195,-0.040
'27:10.153',0.215,-0.050
'27:10.156',0.200,-0.065
'27:10.158',0.210,-0.065
'27:10.161',0.210,-0.070
'27:10.164',0.240,-0.055
'27:10.167',0.255,-0.055
'27:10.169',0.305,-0.040
'27:10.172',0.300,-0.050
'27:10.175',0.305,-0.050
'27:10.178',0.320,-0.015
'27:10.181',0.350,0.020
'27:10.183',0.360,0.025
'27:10.186',0.355,0.020
'27:10.189',0.355,0.020
'27:10.192',0.345,0.030
'27:10.194',0.320,0.040
'27:10.197',0.340,0.065
'27:10.200',0.340,0.080
'27:10.203',0.355,0.090
'27:10.206',0.345,0.090
'27:10.208',0.315,0.085
'27:10.211',0.345,0.100
'27:10.214',0.365,0.135
'27:10.217',0.375,0.130
'27:10.219',0.375,0.140
'27:10.222',0.375,0.135
'27:10.225',0.365,0.135
'27:10.228',0.360,0.160
'27:10.231',0.365,0.180
'27:10.233',0.390,0.190
'27:10.236',0.385,0.190
'27:10.239',0.370,0.185
'27:10.242',0.375,0.210
'27:10.244',0.415,0.240
'27:10.247',0.485,0.270
'27:10.250',0.575,0.320
'27:10.253',0.645,0.350
'27:10.256',0.695,0.380
'27:10.258',0.735,0.390
'27:10.261',0.840,0.430
'27:10.264',0.970,0.455
'27:10.267',1.115,0.460
'27:10.269',1.175,0.385
'27:10.272',1.230,0.280
'27:10.275',1.250,0.150
'27:10.278',1.335,0.020
'27:10.281',1.465,-0.105
'27:10.283',1.570,-0.285
'27:10.286',1.635,-0.505
'27:10.289',1.650,-0.665
'27:10.292',1.650,-0.770
'27:10.294',1.705,-0.830
'27:10.297',1.715,-0.860
'27:10.300',1.680,-0.845
'27:10.303',1.615,-0.860
'27:10.306',1.475,-0.860
'27:10.308',1.305,-0.830
'27:10.311',1.175,-0.770
'27:10.314',1.005,-0.690
'27:10.317',0.845,-0.615
'27:10.319',0.650,-0.520
'27:10.322',0.480,-0.455
'27:10.325',0.335,-0.385
'27:10.328',0.215,-0.300
'27:10.331',0.195,-0.210
'27:10.333',0.205,-0.140
'27:10.336',0.200,-0.115
'27:10.339',0.185,-0.100
'27:10.342',0.130,-0.075
'27:10.344',0.140,-0.045
'27:10.347',0.140,-0.005
'27:10.350',0.145,0.015
'27:10.353',0.140,0.035
'27:10.356',0.125,0.025
'27:10.358',0.095,0.025
'27:10.361',0.090,0.055
'27:10.364',0.085,0.085
'27:10.367',0.110,0.095
'27:10.369',0.120,0.100
'27:10.372',0.100,0.095
'27:10.375',0.070,0.085
'27:10.378',0.060,0.115
'27:10.381',0.075,0.130
'27:10.383',0.085,0.155
'27:10.386',0.090,0.170
'27:10.389',0.090,0.145
'27:10.392',0.080,0.140
'27:10.394',0.090,0.155
'27:10.397',0.100,0.175
'27:10.400',0.125,0.180
'27:10.403',0.140,0.175
'27:10.406',0.140,0.160
'27:10.408',0.125,0.160
'27:10.411',0.130,0.135
'27:10.414',0.155,0.165
'27:10.417',0.170,0.165
'27:10.419',0.175,0.150
'27:10.422',0.170,0.125
'27:10.425',0.160,0.110
'27:10.428',0.170,0.115
'27:10.431',0.185,0.130
'27:10.433',0.190,0.130
'27:10.436',0.195,0.115
'27:10.439',0.210,0.095
'27:10.442',0.205,0.075
'27:10.444',0.230,0.100
'27:10.447',0.230,0.105
'27:10.450',0.270,0.110
'27:10.453',0.295,0.105
'27:10.456',0.295,0.100
'27:10.458',0.300,0.090
'27:10.461',0.300,0.120
'27:10.464',0.325,0.150
'27:10.467',0.365,0.165
'27:10.469',0.370,0.165
'27:10.472',0.355,0.165
'27:10.475',0.375,0.165
'27:10.478',0.395,0.185
'27:10.481',0.415,0.200
'27:10.483',0.415,0.210
'27:10.486',0.425,0.210
'27:10.489',0.415,0.200
'27:10.492',0.410,0.185
'27:10.494',0.425,0.180
'27:10.497',0.440,0.190
'27:10.500',0.470,0.190
'27:10.503',0.495,0.170
'27:10.506',0.510,0.155
'27:10.508',0.510,0.150
'27:10.511',0.510,0.145
'27:10.514',0.555,0.170
'27:10.517',0.605,0.185
'27:10.519',0.620,0.190
'27:10.522',0.620,0.170
'27:10.525',0.615,0.170
'27:10.528',0.625,0.185
'27:10.531',0.655,0.200
'27:10.533',0.665,0.220
'27:10.536',0.670,0.200
'27:10.539',0.655,0.180
'27:10.542',0.655,0.185
'27:10.544',0.650,0.185
'27:10.547',0.635,0.195
'27:10.550',0.650,0.190
'27:10.553',0.655,0.185
'27:10.556',0.615,0.160
'27:10.558',0.600,0.140
'27:10.561',0.580,0.150
'27:10.564',0.590,0.160
'27:10.567',0.605,0.160
'27:10.569',0.590,0.125
'27:10.572',0.560,0.120
'27:10.575',0.530,0.120
'27:10.578',0.545,0.100
'27:10.581',0.560,0.120
'27:10.583',0.560,0.110
'27:10.586',0.555,0.105
'27:10.589',0.535,0.080
'27:10.592',0.530,0.065
'27:10.594',0.525,0.080
'27:10.597',0.525,0.070
'27:10.600',0.535,0.075
'27:10.603',0.550,0.075
'27:10.606',0.540,0.050
'27:10.608',0.530,0.050
'27:10.611',0.525,0.040
'27:10.614',0.545,0.075
'27:10.617',0.550,0.100
'27:10.619',0.545,0.105
'27:10.622',0.525,0.085
'27:10.625',0.515,0.080
'27:10.628',0.515,0.115
'27:10.631',0.510,0.130
'27:10.633',0.520,0.145
'27:10.636',0.515,0.130
'27:10.639',0.510,0.135
'27:10.642',0.495,0.130
'27:10.644',0.480,0.150
'27:10.647',0.475,0.160
'27:10.650',0.500,0.170
'27:10.653',0.495,0.160
'27:10.656',0.490,0.145
'27:10.658',0.460,0.150
'27:10.661',0.450,0.135
'27:10.664',0.460,0.160
'27:10.667',0.470,0.180
'27:10.669',0.460,0.165
'27:10.672',0.450,0.145
'27:10.675',0.445,0.130
'27:10.678',0.440,0.155
'27:10.681',0.445,0.165
'27:10.683',0.455,0.175
'27:10.686',0.460,0.155
'27:10.689',0.460,0.150
'27:10.692',0.425,0.155
'27:10.694',0.420,0.160
'27:10.697',0.450,0.180
'27:10.700',0.460,0.165
'27:10.703',0.450,0.150
'27:10.706',0.415,0.135
'27:10.708',0.415,0.115
'27:10.711',0.430,0.120
'27:10.714',0.440,0.125
'27:10.717',0.440,0.130
'27:10.719',0.440,0.130
'27:10.722',0.445,0.125
'27:10.725',0.410,0.105
'27:10.728',0.420,0.105
'27:10.731',0.430,0.110
'27:10.733',0.455,0.110
'27:10.736',0.455,0.085
'27:10.739',0.425,0.070
'27:10.742',0.420,0.050
'27:10.744',0.415,0.050
'27:10.747',0.430,0.050
'27:10.750',0.435,0.055
'27:10.753',0.425,0.045
'27:10.756',0.395,0.035
'27:10.758',0.370,0.030
'27:10.761',0.370,0.050
'27:10.764',0.340,0.065
'27:10.767',0.355,0.090
'27:10.769',0.370,0.085
'27:10.772',0.345,0.075
'27:10.775',0.325,0.075
'27:10.778',0.320,0.105
'27:10.781',0.340,0.125
'27:10.783',0.350,0.135
'27:10.786',0.350,0.125
'27:10.789',0.325,0.110
'27:10.792',0.335,0.115
'27:10.794',0.340,0.125
'27:10.797',0.330,0.140
'27:10.800',0.340,0.165
'27:10.803',0.335,0.160
'27:10.806',0.325,0.145
'27:10.808',0.310,0.135
'27:10.811',0.280,0.160
'27:10.814',0.290,0.170
'27:10.817',0.310,0.185
'27:10.819',0.320,0.155
'27:10.822',0.305,0.135
'27:10.825',0.290,0.135
'27:10.828',0.295,0.120
'27:10.831',0.300,0.140
'27:10.833',0.290,0.140
'27:10.836',0.290,0.120
'27:10.839',0.285,0.095
'27:10.842',0.275,0.085
'27:10.844',0.260,0.100
'27:10.847',0.260,0.105
'27:10.850',0.275,0.090
'27:10.853',0.285,0.095
'27:10.856',0.255,0.085
'27:10.858',0.230,0.090
'27:10.861',0.235,0.090
'27:10.864',0.225,0.110
'27:10.867',0.225,0.125
'27:10.869',0.220,0.135
'27:10.872',0.225,0.155
'27:10.875',0.260,0.170
'27:10.878',0.360,0.195
'27:10.881',0.445,0.250
'27:10.883',0.520,0.265
'27:10.886',0.625,0.270
'27:10.889',0.730,0.225
'27:10.892',0.820,0.215
'27:10.894',0.920,0.215
'27:10.897',1.045,0.195
'27:10.900',1.190,0.145
'27:10.903',1.290,0.050
'27:10.906',1.385,-0.060
'27:10.908',1.480,-0.130
'27:10.911',1.610,-0.210
'27:10.914',1.705,-0.290
'27:10.917',1.755,-0.405
'27:10.919',1.745,-0.560
'27:10.922',1.710,-0.660
'27:10.925',1.715,-0.700
'27:10.928',1.680,-0.705
'27:10.931',1.595,-0.665
'27:10.933',1.470,-0.630
'27:10.936',1.310,-0.625
'27:10.939',1.155,-0.585
'27:10.942',0.995,-0.560
'27:10.944',0.855,-0.475
'27:10.947',0.715,-0.405
'27:10.950',0.545,-0.320
'27:10.953',0.355,-0.250
'27:10.956',0.215,-0.195
'27:10.958',0.100,-0.140
'27:10.961',0.015,-0.055
'27:10.964',-0.055,0.025
'27:10.967',-0.100,0.075
'27:10.969',-0.100,0.095
'27:10.972',-0.105,0.105
'27:10.975',-0.130,0.110
'27:10.978',-0.150,0.135
'27:10.981',-0.170,0.145
'27:10.983',-0.170,0.175
'27:10.986',-0.175,0.175
'27:10.989',-0.200,0.160
'27:10.992',-0.235,0.160
'27:10.994',-0.255,0.170
'27:10.997',-0.265,0.210
'27:11.000',-0.250,0.210
'27:11.003',-0.260,0.200
'27:11.006',-0.275,0.150
'27:11.008',-0.305,0.140
'27:11.011',-0.325,0.140
'27:11.014',-0.310,0.135
'27:11.017',-0.285,0.115
'27:11.019',-0.305,0.085
'27:11.022',-0.335,0.050
'27:11.025',-0.340,0.050
'27:11.028',-0.345,0.030
'27:11.031',-0.345,0.055
'27:11.033',-0.345,0.065
'27:11.036',-0.370,0.040
'27:11.039',-0.370,0.035
'27:11.042',-0.380,0.035
'27:11.044',-0.380,0.050
'27:11.047',-0.375,0.070
'27:11.050',-0.365,0.090
'27:11.053',-0.360,0.085
'27:11.056',-0.350,0.075
'27:11.058',-0.375,0.075
'27:11.061',-0.365,0.085
'27:11.064',-0.350,0.115
'27:11.067',-0.330,0.130
'27:11.069',-0.335,0.105
'27:11.072',-0.335,0.090
'27:11.075',-0.330,0.095
'27:11.078',-0.320,0.115
'27:11.081',-0.290,0.125
'27:11.083',-0.260,0.135
'27:11.086',-0.245,0.135
'27:11.089',-0.240,0.135
'27:11.092',-0.220,0.130
'27:11.094',-0.225,0.145
'27:11.097',-0.205,0.165
'27:11.100',-0.180,0.180
'27:11.103',-0.155,0.180
'27:11.106',-0.145,0.160
'27:11.108',-0.150,0.155
'27:11.111',-0.145,0.180
'27:11.114',-0.110,0.210
'27:11.117',-0.065,0.240
'27:11.119',-0.055,0.235
'27:11.122',-0.060,0.235
'27:11.125',-0.060,0.235
'27:11.128',-0.035,0.250
'27:11.131',-0.010,0.260
'27:11.133',0.015,0.270
'27:11.136',0.035,0.245
'27:11.139',0.035,0.225
'27:11.142',0.025,0.205
'27:11.144',0.040,0.220
'27:11.147',0.065,0.230
'27:11.150',0.085,0.240
'27:11.153',0.105,0.215
'27:11.156',0.085,0.185
'27:11.158',0.050,0.205
'27:11.161',0.055,0.185
'27:11.164',0.075,0.210
'27:11.167',0.085,0.205
'27:11.169',0.065,0.190
'27:11.172',0.025,0.180
'27:11.175',0.000,0.170
'27:11.178',0.000,0.170
'27:11.181',-0.020,0.185
'27:11.183',-0.035,0.205
'27:11.186',-0.050,0.205
'27:11.189',-0.090,0.175
'27:11.192',-0.130,0.195
'27:11.194',-0.150,0.195
'27:11.197',-0.150,0.215
'27:11.200',-0.135,0.215
'27:11.203',-0.170,0.205
'27:11.206',-0.200,0.190
'27:11.208',-0.230,0.190
'27:11.211',-0.215,0.210
'27:11.214',-0.220,0.220
'27:11.217',-0.220,0.245
'27:11.219',-0.230,0.225
'27:11.222',-0.250,0.220
'27:11.225',-0.280,0.220
'27:11.228',-0.285,0.230
'27:11.231',-0.300,0.255
'27:11.233',-0.290,0.280
'27:11.236',-0.300,0.275
'27:11.239',-0.320,0.245
'27:11.242',-0.350,0.265
'27:11.244',-0.355,0.280
'27:11.247',-0.345,0.290
'27:11.250',-0.340,0.290
'27:11.253',-0.350,0.305
'27:11.256',-0.350,0.290
'27:11.258',-0.365,0.290
'27:11.261',-0.375,0.290
'27:11.264',-0.365,0.305
'27:11.267',-0.345,0.310
'27:11.269',-0.350,0.295
'27:11.272',-0.365,0.265
'27:11.275',-0.400,0.250
'27:11.278',-0.405,0.245
'27:11.281',-0.375,0.255
'27:11.283',-0.370,0.260
'27:11.286',-0.365,0.245
'27:11.289',-0.360,0.235
'27:11.292',-0.395,0.230
'27:11.294',-0.385,0.220
'27:11.297',-0.360,0.240
'27:11.300',-0.360,0.235
'27:11.303',-0.350,0.215
'27:11.306',-0.340,0.200
'27:11.308',-0.350,0.175
'27:11.311',-0.350,0.185
'27:11.314',-0.335,0.195
'27:11.317',-0.305,0.205
'27:11.319',-0.310,0.180
'27:11.322',-0.335,0.165
'27:11.325',-0.355,0.165
'27:11.328',-0.350,0.175
'27:11.331',-0.340,0.190
'27:11.333',-0.350,0.175
'27:11.336',-0.350,0.180
'27:11.339',-0.360,0.155
'27:11.342',-0.390,0.160
'27:11.344',-0.385,0.180
'27:11.347',-0.385,0.185
'27:11.350',-0.370,0.190
'27:11.353',-0.395,0.190
'27:11.356',-0.405,0.175
'27:11.358',-0.430,0.175
'27:11.361',-0.425,0.185
'27:11.364',-0.410,0.200
'27:11.367',-0.400,0.205
'27:11.369',-0.420,0.195
'27:11.372',-0.415,0.185
'27:11.375',-0.430,0.180
'27:11.378',-0.435,0.185
'27:11.381',-0.415,0.210
'27:11.383',-0.410,0.220
'27:11.386',-0.400,0.220
'27:11.389',-0.420,0.210
'27:11.392',-0.450,0.205
'27:11.394',-0.450,0.235
'27:11.397',-0.440,0.245
'27:11.400',-0.425,0.250
'27:11.403',-0.445,0.250
'27:11.406',-0.445,0.225
'27:11.408',-0.455,0.230
'27:11.411',-0.445,0.220
'27:11.414',-0.440,0.225
'27:11.417',-0.445,0.235
'27:11.419',-0.450,0.230
'27:11.422',-0.425,0.210
'27:11.425',-0.435,0.205
'27:11.428',-0.430,0.205
'27:11.431',-0.415,0.215
'27:11.433',-0.405,0.210
'27:11.436',-0.400,0.195
'27:11.439',-0.415,0.170
'27:11.442',-0.415,0.150
'27:11.444',-0.415,0.150
'27:11.447',-0.425,0.175
'27:11.450',-0.415,0.165
'27:11.453',-0.395,0.155
'27:11.456',-0.415,0.140
'27:11.458',-0.420,0.140
'27:11.461',-0.400,0.130
'27:11.464',-0.390,0.150
'27:11.467',-0.360,0.150
'27:11.469',-0.370,0.160
'27:11.472',-0.385,0.145
'27:11.475',-0.385,0.135
'27:11.478',-0.380,0.140
'27:11.481',-0.360,0.170
'27:11.483',-0.365,0.170
'27:11.486',-0.370,0.160
'27:11.489',-0.395,0.155
'27:11.492',-0.390,0.155
'27:11.494',-0.400,0.165
'27:11.497',-0.395,0.190
'27:11.500',-0.390,0.205
'27:11.503',-0.375,0.190
'27:11.506',-0.380,0.185
'27:11.508',-0.380,0.180
'27:11.511',-0.380,0.185
'27:11.514',-0.375,0.205
'27:11.517',-0.365,0.215
'27:11.519',-0.345,0.205
'27:11.522',-0.335,0.195
'27:11.525',-0.355,0.195
'27:11.528',-0.355,0.210
'27:11.531',-0.345,0.210
'27:11.533',-0.310,0.235
'27:11.536',-0.320,0.215
'27:11.539',-0.335,0.190
'27:11.542',-0.355,0.185
'27:11.544',-0.345,0.195
'27:11.547',-0.325,0.220
'27:11.550',-0.315,0.215
'27:11.553',-0.345,0.225
'27:11.556',-0.335,0.230
'27:11.558',-0.335,0.245
'27:11.561',-0.280,0.270
'27:11.564',-0.210,0.325
'27:11.567',-0.140,0.355
'27:11.569',-0.075,0.365
'27:11.572',-0.010,0.375
'27:11.575',0.070,0.370
'27:11.578',0.180,0.405
'27:11.581',0.310,0.410
'27:11.583',0.450,0.425
'27:11.586',0.555,0.410
'27:11.589',0.645,0.350
'27:11.592',0.695,0.270
'27:11.594',0.760,0.180
'27:11.597',0.845,0.115
'27:11.600',0.950,0.035
'27:11.603',0.995,-0.090
'27:11.606',1.040,-0.240
'27:11.608',1.050,-0.370
'27:11.611',1.050,-0.485
'27:11.614',1.095,-0.565
'27:11.617',1.125,-0.590
'27:11.619',1.090,-0.605
'27:11.622',1.015,-0.630
'27:11.625',0.910,-0.640
'27:11.628',0.755,-0.630
'27:11.631',0.615,-0.580
'27:11.633',0.505,-0.545
'27:11.636',0.380,-0.510
'27:11.639',0.230,-0.455
'27:11.642',0.040,-0.385
'27:11.644',-0.165,-0.310
'27:11.647',-0.300,-0.230
'27:11.650',-0.410,-0.145
'27:11.653',-0.500,-0.090
'27:11.656',-0.570,-0.040
'27:11.658',-0.610,0.015
'27:11.661',-0.600,0.055
'27:11.664',-0.600,0.085
'27:11.667',-0.585,0.125
'27:11.669',-0.600,0.120
'27:11.672',-0.625,0.125
'27:11.675',-0.625,0.125
'27:11.678',-0.640,0.140
'27:11.681',-0.630,0.160
'27:11.683',-0.625,0.165
'27:11.686',-0.620,0.150
'27:11.689',-0.630,0.130
'27:11.692',-0.665,0.120
'27:11.694',-0.660,0.125
'27:11.697',-0.650,0.135
'27:11.700',-0.625,0.135
'27:11.703',-0.635,0.135
'27:11.706',-0.640,0.115
'27:11.708',-0.635,0.110
'27:11.711',-0.630,0.130
'27:11.714',-0.640,0.150
'27:11.717',-0.625,0.155
'27:11.719',-0.605,0.170
'27:11.722',-0.605,0.165
'27:11.725',-0.615,0.170
'27:11.728',-0.620,0.175
'27:11.731',-0.600,0.205
'27:11.733',-0.585,0.220
'27:11.736',-0.550,0.220
'27:11.739',-0.555,0.195
'27:11.742',-0.570,0.175
'27:11.744',-0.550,0.170
'27:11.747',-0.535,0.195
'27:11.750',-0.525,0.205
'27:11.753',-0.525,0.195
'27:11.756',-0.510,0.170
'27:11.758',-0.520,0.160
'27:11.761',-0.540,0.165
'27:11.764',-0.520,0.185
'27:11.767',-0.500,0.195
'27:11.769',-0.500,0.180
'27:11.772',-0.505,0.180
'27:11.775',-0.520,0.170
'27:11.778',-0.495,0.185
'27:11.781',-0.475,0.195
'27:11.783',-0.440,0.210
'27:11.786',-0.430,0.205
'27:11.789',-0.415,0.195
'27:11.792',-0.400,0.195
'27:11.794',-0.390,0.205
'27:11.797',-0.360,0.240
'27:11.800',-0.330,0.245
'27:11.803',-0.310,0.240
'27:11.806',-0.295,0.230
'27:11.808',-0.295,0.230
'27:11.811',-0.280,0.240
'27:11.814',-0.235,0.235
'27:11.817',-0.200,0.250
'27:11.819',-0.195,0.250
'27:11.822',-0.205,0.210
'27:11.825',-0.175,0.225
'27:11.828',-0.165,0.230
'27:11.831',-0.140,0.245
'27:11.833',-0.115,0.240
'27:11.836',-0.100,0.225
'27:11.839',-0.105,0.220
'27:11.842',-0.125,0.205
'27:11.844',-0.135,0.215
'27:11.847',-0.120,0.240
'27:11.850',-0.110,0.235
'27:11.853',-0.130,0.230
'27:11.856',-0.155,0.225
'27:11.858',-0.185,0.215
'27:11.861',-0.180,0.220
'27:11.864',-0.180,0.240
'27:11.867',-0.180,0.240
'27:11.869',-0.205,0.230
'27:11.872',-0.220,0.240
'27:11.875',-0.250,0.210
'27:11.878',-0.260,0.210
'27:11.881',-0.265,0.210
'27:11.883',-0.265,0.220
'27:11.886',-0.275,0.195
'27:11.889',-0.300,0.160
'27:11.892',-0.300,0.165
'27:11.894',-0.310,0.160
'27:11.897',-0.315,0.155
'27:11.900',-0.285,0.155
'27:11.903',-0.300,0.150
'27:11.906',-0.305,0.135
'27:11.908',-0.310,0.115
'27:11.911',-0.315,0.125
'27:11.914',-0.315,0.120
'27:11.917',-0.290,0.120
'27:11.919',-0.295,0.120
'27:11.922',-0.300,0.095
'27:11.925',-0.325,0.085
'27:11.928',-0.335,0.085
'27:11.931',-0.300,0.115
'27:11.933',-0.285,0.140
'27:11.936',-0.285,0.120
'27:11.939',-0.300,0.120
'27:11.942',-0.305,0.125
'27:11.944',-0.300,0.135
'27:11.947',-0.285,0.160
'27:11.950',-0.275,0.170
'27:11.953',-0.270,0.170
'27:11.956',-0.280,0.160
'27:11.958',-0.290,0.165
'27:11.961',-0.300,0.180
'27:11.964',-0.275,0.195
'27:11.967',-0.235,0.225
'27:11.969',-0.245,0.205
'27:11.972',-0.265,0.180
'27:11.975',-0.280,0.175
'27:11.978',-0.270,0.190
'27:11.981',-0.245,0.215
'27:11.983',-0.250,0.205
'27:11.986',-0.255,0.200
'27:11.989',-0.285,0.195
'27:11.992',-0.305,0.185
'27:11.994',-0.275,0.220
'27:11.997',-0.265,0.220
'27:12.000',-0.250,0.235
'27:12.003',-0.275,0.215
'27:12.006',-0.285,0.215
'27:12.008',-0.300,0.220
'27:12.011',-0.280,0.230
'27:12.014',-0.275,0.245
'27:12.017',-0.280,0.235
'27:12.019',-0.290,0.235
'27:12.022',-0.270,0.215
'27:12.025',-0.295,0.195
'27:12.028',-0.310,0.210
'27:12.031',-0.305,0.220
'27:12.033',-0.300,0.215
'27:12.036',-0.295,0.210
'27:12.039',-0.285,0.195
'27:12.042',-0.305,0.180
'27:12.044',-0.310,0.180
'27:12.047',-0.310,0.180
'27:12.050',-0.290,0.185
'27:12.053',-0.265,0.165
'27:12.056',-0.285,0.125
'27:12.058',-0.305,0.125
'27:12.061',-0.315,0.105
'27:12.064',-0.295,0.120
'27:12.067',-0.270,0.115
'27:12.069',-0.290,0.085
'27:12.072',-0.300,0.080
'27:12.075',-0.315,0.040
'27:12.078',-0.320,0.030
'27:12.081',-0.275,0.035
'27:12.083',-0.260,0.035
'27:12.086',-0.255,0.025
'27:12.089',-0.275,0.010
'27:12.092',-0.290,0.010
'27:12.094',-0.280,0.000
'27:12.097',-0.285,0.035
'27:12.100',-0.260,0.035
'27:12.103',-0.250,0.020
'27:12.106',-0.255,0.025
'27:12.108',-0.260,0.015
'27:12.111',-0.275,0.035
'27:12.114',-0.260,0.050
'27:12.117',-0.240,0.060
'27:12.119',-0.235,0.065
'27:12.122',-0.240,0.045
'27:12.125',-0.255,0.050
'27:12.128',-0.250,0.060
'27:12.131',-0.230,0.105
'27:12.133',-0.185,0.105
'27:12.136',-0.195,0.105
'27:12.139',-0.205,0.095
'27:12.142',-0.220,0.085
'27:12.144',-0.210,0.120
'27:12.147',-0.205,0.150
'27:12.150',-0.205,0.160
'27:12.153',-0.230,0.150
'27:12.156',-0.230,0.165
'27:12.158',-0.235,0.140
'27:12.161',-0.235,0.175
'27:12.164',-0.225,0.205
'27:12.167',-0.225,0.210
'27:12.169',-0.230,0.220
'27:12.172',-0.215,0.210
'27:12.175',-0.225,0.210
'27:12.178',-0.225,0.220
'27:12.181',-0.215,0.235
'27:12.183',-0.195,0.240
'27:12.186',-0.175,0.235
'27:12.189',-0.210,0.220
'27:12.192',-0.230,0.230
'27:12.194',-0.220,0.220
'27:12.197',-0.215,0.235
'27:12.200',-0.215,0.245
'27:12.203',-0.195,0.235
'27:12.206',-0.220,0.220
'27:12.208',-0.215,0.205
'27:12.211',-0.205,0.230
'27:12.214',-0.200,0.225
'27:12.217',-0.180,0.230
'27:12.219',-0.165,0.205
'27:12.222',-0.165,0.175
'27:12.225',-0.190,0.150
'27:12.228',-0.175,0.165
'27:12.231',-0.155,0.155
'27:12.233',-0.140,0.150
'27:12.236',-0.155,0.110
'27:12.239',-0.155,0.080
'27:12.242',-0.170,0.055
'27:12.244',-0.185,0.065
'27:12.247',-0.160,0.045
'27:12.250',-0.135,0.055
'27:12.253',-0.150,0.010
'27:12.256',-0.155,0.000
'27:12.258',-0.160,-0.010
'27:12.261',-0.135,-0.010
'27:12.264',-0.120,-0.010
'27:12.267',-0.125,0.000
'27:12.269',-0.145,-0.010
'27:12.272',-0.145,-0.010
'27:12.275',-0.160,-0.020
'27:12.278',-0.165,0.000
'27:12.281',-0.170,0.010
'27:12.283',-0.140,0.040
'27:12.286',-0.145,0.020
'27:12.289',-0.160,0.010
'27:12.292',-0.165,0.005
'27:12.294',-0.160,0.030
'27:12.297',-0.135,0.035
'27:12.300',-0.125,0.065
'27:12.303',-0.120,0.065
'27:12.306',-0.125,0.045
'27:12.308',-0.135,0.045
'27:12.311',-0.145,0.085
'27:12.314',-0.145,0.085
'27:12.317',-0.105,0.100
'27:12.319',-0.105,0.105
'27:12.322',-0.100,0.080
'27:12.325',-0.115,0.090
'27:12.328',-0.125,0.115
'27:12.331',-0.115,0.120
'27:12.333',-0.090,0.150
'27:12.336',-0.070,0.130
'27:12.339',-0.085,0.135
'27:12.342',-0.085,0.125
'27:12.344',-0.085,0.150
'27:12.347',-0.080,0.165
'27:12.350',-0.075,0.185
'27:12.353',-0.080,0.170
'27:12.356',-0.075,0.170
'27:12.358',-0.075,0.165
'27:12.361',-0.070,0.175
'27:12.364',-0.065,0.185
'27:12.367',-0.040,0.185
'27:12.369',-0.015,0.180
'27:12.372',-0.030,0.165
'27:12.375',-0.040,0.155
'27:12.378',-0.030,0.170
'27:12.381',-0.015,0.185
'27:12.383',0.010,0.210
'27:12.386',0.060,0.215
'27:12.389',0.125,0.225
'27:12.392',0.200,0.230
'27:12.394',0.275,0.265
'27:12.397',0.340,0.295
'27:12.400',0.435,0.295
'27:12.403',0.570,0.305
'27:12.406',0.675,0.280
'27:12.408',0.745,0.275
'27:12.411',0.835,0.250
'27:12.414',0.915,0.220
'27:12.417',1.005,0.135
'27:12.419',1.070,0.060
'27:12.422',1.130,-0.050
'27:12.425',1.205,-0.150
'27:12.428',1.265,-0.270
'27:12.431',1.305,-0.410
'27:12.433',1.310,-0.515
'27:12.436',1.310,-0.630
'27:12.439',1.330,-0.690
'27:12.442',1.315,-0.700
'27:12.444',1.240,-0.680
'27:12.447',1.155,-0.660
'27:12.450',1.025,-0.635
'27:12.453',0.885,-0.600
'27:12.456',0.755,-0.560
'27:12.458',0.590,-0.505
'27:12.461',0.435,-0.435
'27:12.464',0.290,-0.350
'27:12.467',0.145,-0.280
'27:12.469',0.020,-0.225
'27:12.472',-0.085,-0.170
'27:12.475',-0.175,-0.120
'27:12.478',-0.200,-0.065
'27:12.481',-0.200,-0.015
'27:12.483',-0.195,0.015
'27:12.486',-0.225,0.025
'27:12.489',-0.245,0.025
'27:12.492',-0.275,0.040
'27:12.494',-0.300,0.065
'27:12.497',-0.285,0.090
'27:12.500',-0.275,0.120
'27:12.503',-0.280,0.110
'27:12.506',-0.305,0.100
'27:12.508',-0.330,0.080
'27:12.511',-0.320,0.100
'27:12.514',-0.290,0.125
'27:12.517',-0.270,0.115
'27:12.519',-0.280,0.120
'27:12.522',-0.300,0.095
'27:12.525',-0.295,0.080
'27:12.528',-0.300,0.090
'27:12.531',-0.270,0.115
'27:12.533',-0.260,0.115
'27:12.536',-0.255,0.105
'27:12.539',-0.255,0.090
'27:12.542',-0.235,0.085
'27:12.544',-0.235,0.095
'27:12.547',-0.245,0.100
'27:12.550',-0.215,0.110
'27:12.553',-0.215,0.095
'27:12.556',-0.225,0.065
'27:12.558',-0.225,0.045
'27:12.561',-0.220,0.050
'27:12.564',-0.185,0.065
'27:12.567',-0.160,0.070
'27:12.569',-0.165,0.050
'27:12.572',-0.180,0.050
'27:12.575',-0.170,0.015
'27:12.578',-0.170,0.045
'27:12.581',-0.155,0.050
'27:12.583',-0.125,0.060
'27:12.586',-0.145,0.030
'27:12.589',-0.140,0.025
'27:12.592',-0.125,0.020
'27:12.594',-0.135,0.040
'27:12.597',-0.120,0.065
'27:12.600',-0.110,0.065
'27:12.603',-0.105,0.060
'27:12.606',-0.105,0.045
'27:12.608',-0.115,0.035
'27:12.611',-0.105,0.055
'27:12.614',-0.105,0.090
'27:12.617',-0.055,0.100
'27:12.619',-0.045,0.095
'27:12.622',-0.025,0.080
'27:12.625',-0.035,0.095
'27:12.628',-0.030,0.115
'27:12.631',-0.005,0.110
'27:12.633',0.035,0.150
'27:12.636',0.045,0.140
'27:12.639',0.030,0.125
'27:12.642',0.035,0.125
'27:12.644',0.050,0.150
'27:12.647',0.090,0.165
'27:12.650',0.115,0.180
'27:12.653',0.115,0.180
'27:12.656',0.110,0.170
'27:12.658',0.125,0.165
'27:12.661',0.135,0.175
'27:12.664',0.160,0.185
'27:12.667',0.195,0.205
'27:12.669',0.220,0.190
'27:12.672',0.225,0.175
'27:12.675',0.245,0.160
'27:12.678',0.260,0.170
'27:12.681',0.275,0.170
'27:12.683',0.295,0.180
'27:12.686',0.295,0.165
'27:12.689',0.295,0.140
'27:12.692',0.260,0.130
'27:12.694',0.250,0.140
'27:12.697',0.240,0.145
'27:12.700',0.265,0.150
'27:12.703',0.250,0.135
'27:12.706',0.210,0.105
'27:12.708',0.170,0.095
'27:12.711',0.170,0.100
'27:12.714',0.180,0.090
'27:12.717',0.180,0.100
'27:12.719',0.165,0.075
'27:12.722',0.145,0.055
'27:12.725',0.140,0.045
'27:12.728',0.135,0.070
'27:12.731',0.150,0.070
'27:12.733',0.120,0.070
'27:12.736',0.115,0.055
'27:12.739',0.100,0.070
'27:12.742',0.085,0.050
'27:12.744',0.080,0.065
'27:12.747',0.080,0.080
'27:12.750',0.095,0.100
'27:12.753',0.100,0.075
'27:12.756',0.090,0.060
'27:12.758',0.085,0.050
'27:12.761',0.080,0.060
'27:12.764',0.105,0.070
'27:12.767',0.110,0.080
'27:12.769',0.100,0.070
'27:12.772',0.080,0.065
'27:12.775',0.090,0.065
'27:12.778',0.105,0.070
'27:12.781',0.105,0.075
'27:12.783',0.105,0.085
'27:12.786',0.100,0.065
'27:12.789',0.100,0.070
'27:12.792',0.095,0.065
'27:12.794',0.095,0.085
'27:12.797',0.100,0.095
'27:12.800',0.110,0.105
'27:12.803',0.110,0.105
'27:12.806',0.105,0.085
'27:12.808',0.090,0.110
'27:12.811',0.095,0.100
'27:12.814',0.105,0.140
'27:12.817',0.125,0.135
'27:12.819',0.095,0.145
'27:12.822',0.090,0.110
'27:12.825',0.090,0.120
'27:12.828',0.100,0.125
'27:12.831',0.120,0.145
'27:12.833',0.130,0.150
'27:12.836',0.130,0.125
'27:12.839',0.130,0.105
'27:12.842',0.120,0.105
'27:12.844',0.105,0.110
'27:12.847',0.115,0.115
'27:12.850',0.135,0.120
'27:12.853',0.140,0.110
'27:12.856',0.115,0.105
'27:12.858',0.100,0.085
'27:12.861',0.095,0.100
'27:12.864',0.125,0.115
'27:12.867',0.135,0.110
'27:12.869',0.120,0.095
'27:12.872',0.105,0.075
'27:12.875',0.110,0.070
'27:12.878',0.110,0.085
'27:12.881',0.110,0.090
'27:12.883',0.125,0.075
'27:12.886',0.140,0.085
'27:12.889',0.130,0.070
'27:12.892',0.135,0.050
'27:12.894',0.130,0.070
'27:12.897',0.140,0.080
'27:12.900',0.150,0.090
'27:12.903',0.145,0.070
'27:12.906',0.130,0.060
'27:12.908',0.120,0.050
'27:12.911',0.120,0.060
'27:12.914',0.130,0.070
'27:12.917',0.145,0.085
'27:12.919',0.135,0.065
'27:12.922',0.125,0.055
'27:12.925',0.125,0.040
'27:12.928',0.130,0.045
'27:12.931',0.140,0.065
'27:12.933',0.160,0.060
'27:12.936',0.155,0.045
'27:12.939',0.140,0.025
'27:12.942',0.135,0.035
'27:12.944',0.130,0.035
'27:12.947',0.145,0.055
'27:12.950',0.155,0.075
'27:12.953',0.115,0.055
'27:12.956',0.105,0.065
'27:12.958',0.095,0.085
'27:12.961',0.100,0.115
'27:12.964',0.170,0.170
'27:12.967',0.280,0.195
'27:12.969',0.395,0.210
'27:12.972',0.475,0.225
'27:12.975',0.575,0.220
'27:12.978',0.665,0.235
'27:12.981',0.780,0.245
'27:12.983',0.905,0.260
'27:12.986',1.010,0.200
'27:12.989',1.100,0.125
'27:12.992',1.200,0.030
'27:12.994',1.310,-0.060
'27:12.997',1.435,-0.125
'27:13.000',1.535,-0.210
'27:13.003',1.585,-0.335
'27:13.006',1.590,-0.500
'27:13.008',1.570,-0.645
'27:13.011',1.595,-0.730
'27:13.014',1.610,-0.780
'27:13.017',1.580,-0.790
'27:13.019',1.515,-0.815
'27:13.022',1.435,-0.815
'27:13.025',1.300,-0.815
'27:13.028',1.150,-0.785
'27:13.031',1.030,-0.755
'27:13.033',0.915,-0.690
'27:13.036',0.765,-0.635
'27:13.039',0.585,-0.590
'27:13.042',0.390,-0.530
'27:13.044',0.205,-0.445
'27:13.047',0.080,-0.355
'27:13.050',0.005,-0.280
'27:13.053',-0.060,-0.235
'27:13.056',-0.120,-0.210
'27:13.058',-0.145,-0.175
'27:13.061',-0.130,-0.140
'27:13.064',-0.135,-0.085
'27:13.067',-0.150,-0.045
'27:13.069',-0.190,-0.040
'27:13.072',-0.220,-0.040
'27:13.075',-0.235,-0.025
'27:13.078',-0.225,-0.005
'27:13.081',-0.240,0.005
'27:13.083',-0.235,0.025
'27:13.086',-0.245,0.020
'27:13.089',-0.270,0.020
'27:13.092',-0.260,0.020
'27:13.094',-0.270,0.035
'27:13.097',-0.255,0.055
'27:13.100',-0.235,0.060
'27:13.103',-0.240,0.035
'27:13.106',-0.260,0.025
'27:13.108',-0.280,0.025
'27:13.111',-0.280,0.040
'27:13.114',-0.285,0.070
'27:13.117',-0.260,0.070
'27:13.119',-0.270,0.060
'27:13.122',-0.285,0.060
'27:13.125',-0.280,0.045
'27:13.128',-0.260,0.065
'27:13.131',-0.260,0.070
'27:13.133',-0.250,0.075
'27:13.136',-0.250,0.075
'27:13.139',-0.245,0.065
'27:13.142',-0.250,0.055
'27:13.144',-0.230,0.075
'27:13.147',-0.225,0.060
'27:13.150',-0.195,0.080
'27:13.153',-0.195,0.060
'27:13.156',-0.190,0.045
'27:13.158',-0.190,0.040
'27:13.161',-0.155,0.045
'27:13.164',-0.145,0.075
'27:13.167',-0.135,0.075
'27:13.169',-0.120,0.065
'27:13.172',-0.105,0.045
'27:13.175',-0.100,0.035
'27:13.178',-0.095,0.040
'27:13.181',-0.085,0.045
'27:13.183',-0.065,0.050
'27:13.186',-0.035,0.040
'27:13.189',-0.040,0.020
'27:13.192',-0.050,0.010
'27:13.194',-0.035,0.030
'27:13.197',-0.035,0.040
'27:13.200',-0.015,0.045
'27:13.203',0.005,0.035
'27:13.206',0.010,0.015
'27:13.208',0.000,0.015
'27:13.211',0.010,0.010
'27:13.214',0.055,0.030
'27:13.217',0.085,0.030
'27:13.219',0.090,0.020
'27:13.222',0.090,0.010
'27:13.225',0.090,-0.005
'27:13.228',0.120,0.020
'27:13.231',0.140,0.045
'27:13.233',0.160,0.035
'27:13.236',0.180,0.020
'27:13.239',0.185,0.015
'27:13.242',0.200,0.010
'27:13.244',0.205,0.030
'27:13.247',0.205,0.035
'27:13.250',0.230,0.055
'27:13.253',0.235,0.045
'27:13.256',0.245,0.040
'27:13.258',0.235,0.025
'27:13.261',0.225,0.040
'27:13.264',0.235,0.060
'27:13.267',0.250,0.085
'27:13.269',0.250,0.075
'27:13.272',0.220,0.070
'27:13.275',0.200,0.065
'27:13.278',0.175,0.070
'27:13.281',0.180,0.095
'27:13.283',0.190,0.105
'27:13.286',0.175,0.095
'27:13.289',0.145,0.085
'27:13.292',0.110,0.085
'27:13.294',0.090,0.105
'27:13.297',0.100,0.125
'27:13.300',0.090,0.135
'27:13.303',0.070,0.115
'27:13.306',0.045,0.095
'27:13.308',0.015,0.095
'27:13.311',0.035,0.100
'27:13.314',0.030,0.120
'27:13.317',0.010,0.105
'27:13.319',0.015,0.105
'27:13.322',0.000,0.075
'27:13.325',-0.015,0.080
'27:13.328',-0.030,0.075
'27:13.331',-0.035,0.095
'27:13.333',-0.015,0.115
'27:13.336',-0.015,0.090
'27:13.339',-0.045,0.080
'27:13.342',-0.060,0.080
'27:13.344',-0.040,0.100
'27:13.347',-0.030,0.115
'27:13.350',-0.015,0.130
'27:13.353',-0.030,0.120
'27:13.356',-0.050,0.115
'27:13.358',-0.065,0.115
'27:13.361',-0.050,0.140
'27:13.364',-0.035,0.165
'27:13.367',-0.025,0.185
'27:13.369',0.000,0.200
'27:13.372',0.050,0.205
'27:13.375',0.085,0.225
'27:13.378',0.150,0.285
'27:13.381',0.205,0.360
'27:13.383',0.250,0.410
'27:13.386',0.280,0.445
'27:13.389',0.270,0.475
'27:13.392',0.200,0.520
'27:13.394',0.120,0.540
'27:13.397',0.060,0.555
'27:13.400',0.090,0.510
'27:13.403',0.175,0.425
'27:13.406',0.325,0.270
'27:13.408',0.440,0.110
'27:13.411',0.470,-0.055
'27:13.414',0.510,-0.205
'27:13.417',0.630,-0.310
'27:13.419',0.745,-0.420
