'Elapsed time','MLII','V1'
'hh:mm:ss.mmm','mV','mV'
'1:00.000',-0.380,0.000
'1:00.003',-0.330,-0.015
'1:00.006',-0.250,-0.005
'1:00.008',-0.150,-0.010
'1:00.011',-0.055,-0.020
'1:00.014',0.025,-0.020
'1:00.017',0.085,-0.025
'1:00.019',0.120,-0.025
'1:00.022',0.155,0.000
'1:00.025',0.180,0.015
'1:00.028',0.205,0.015
'1:00.031',0.215,0.010
'1:00.033',0.210,0.000
'1:00.036',0.200,-0.005
'1:00.039',0.215,0.015
'1:00.042',0.230,0.020
'1:00.044',0.255,0.030
'1:00.047',0.270,0.035
'1:00.050',0.275,0.020
'1:00.053',0.280,0.010
'1:00.056',0.300,0.010
'1:00.058',0.340,0.030
'1:00.061',0.365,0.030
'1:00.064',0.410,0.025
'1:00.067',0.430,0.020
'1:00.069',0.445,0.030
'1:00.072',0.470,0.020
'1:00.075',0.490,0.030
'1:00.078',0.525,0.035
'1:00.081',0.570,0.025
'1:00.083',0.645,0.025
'1:00.086',0.710,0.035
'1:00.089',0.710,0.045
'1:00.092',0.630,0.060
'1:00.094',0.535,0.050
'1:00.097',0.485,0.045
'1:00.100',0.490,0.045
'1:00.103',0.555,0.040
'1:00.106',0.615,0.055
'1:00.108',0.635,0.070
'1:00.111',0.610,0.080
'1:00.114',0.580,0.070
'1:00.117',0.585,0.050
'1:00.119',0.635,0.055
'1:00.122',0.680,0.070
'1:00.125',0.690,0.070
'1:00.128',0.695,0.080
'1:00.131',0.685,0.105
'1:00.133',0.695,0.085
'1:00.136',0.695,0.060
'1:00.139',0.690,0.065
'1:00.142',0.695,0.090
'1:00.144',0.680,0.060
'1:00.147',0.670,0.070
'1:00.150',0.635,0.060
'1:00.153',0.610,0.070
'1:00.156',0.585,0.070
'1:00.158',0.555,0.060
'1:00.161',0.540,0.060
'1:00.164',0.530,0.065
'1:00.167',0.515,0.055
'1:00.169',0.500,0.060
'1:00.172',0.500,0.065
'1:00.175',0.495,0.080
'1:00.178',0.485,0.065
'1:00.181',0.430,0.055
'1:00.183',0.385,0.055
'1:00.186',0.310,0.045
'1:00.189',0.210,0.045
'1:00.192',0.120,0.070
'1:00.194',0.075,0.075
'1:00.197',0.085,0.040
'1:00.200',0.120,0.035
'1:00.203',0.110,0.035
'1:00.206',0.100,0.040
'1:00.208',0.085,0.050
'1:00.211',0.065,0.045
'1:00.214',0.050,0.060
'1:00.217',0.030,0.035
'1:00.219',0.030,0.025
'1:00.222',0.040,0.025
'1:00.225',0.040,0.045
'1:00.228',0.020,0.030
'1:00.231',0.020,0.015
'1:00.233',-0.020,0.025
'1:00.236',-0.035,0.015
'1:00.239',-0.015,0.015
'1:00.242',0.000,0.010
'1:00.244',0.000,0.015
'1:00.247',0.015,0.010
'1:00.250',0.015,-0.005
'1:00.253',-0.010,0.005
'1:00.256',-0.045,0.030
'1:00.258',-0.035,0.045
'1:00.261',-0.035,0.015
'1:00.264',-0.015,0.015
'1:00.267',-0.025,0.015
'1:00.269',-0.050,0.020
'1:00.272',-0.040,0.010
'1:00.275',-0.035,0.030
'1:00.278',-0.025,0.045
'1:00.281',-0.060,0.035
'1:00.283',-0.120,0.010
'1:00.286',-0.180,0.000
'1:00.289',-0.210,0.025
'1:00.292',-0.190,0.025
'1:00.294',-0.140,0.015
'1:00.297',-0.125,0.025
'1:00.300',-0.110,0.035
'1:00.303',-0.115,0.020
'1:00.306',-0.085,0.020
'1:00.308',-0.075,0.020
'1:00.311',-0.075,0.030
'1:00.314',-0.085,0.025
'1:00.317',-0.085,0.020
'1:00.319',-0.090,0.020
'1:00.322',-0.100,0.035
'1:00.325',-0.080,0.045
'1:00.328',-0.055,0.025
'1:00.331',-0.050,0.020
'1:00.333',-0.070,0.015
'1:00.336',-0.085,-0.010
'1:00.339',-0.120,0.000
'1:00.342',-0.125,0.010
'1:00.344',-0.110,0.035
'1:00.347',-0.085,0.035
'1:00.350',-0.065,0.000
'1:00.353',-0.100,-0.005
'1:00.356',-0.170,0.010
'1:00.358',-0.175,0.035
'1:00.361',-0.075,0.025
'1:00.364',0.025,0.030
'1:00.367',0.060,0.030
'1:00.369',0.020,0.030
'1:00.372',-0.050,0.015
'1:00.375',-0.135,0.020
'1:00.378',-0.190,0.040
'1:00.381',-0.220,0.040
'1:00.383',-0.195,0.020
'1:00.386',-0.140,0.035
'1:00.389',-0.105,0.055
'1:00.392',-0.095,0.045
'1:00.394',-0.135,0.045
'1:00.397',-0.205,0.035
'1:00.400',-0.260,0.050
'1:00.403',-0.270,0.050
'1:00.406',-0.225,0.035
'1:00.408',-0.175,0.050
'1:00.411',-0.140,0.075
'1:00.414',-0.130,0.065
'1:00.417',-0.130,0.040
'1:00.419',-0.130,0.025
'1:00.422',-0.130,0.040
'1:00.425',-0.130,0.045
'1:00.428',-0.125,0.055
'1:00.431',-0.120,0.055
'1:00.433',-0.110,0.060
'1:00.436',-0.075,0.055
'1:00.439',-0.030,0.040
'1:00.442',0.010,0.050
'1:00.444',-0.020,0.065
'1:00.447',-0.115,0.055
'1:00.450',-0.180,0.045
'1:00.453',-0.170,0.050
'1:00.456',-0.075,0.080
'1:00.458',-0.010,0.075
'1:00.461',-0.045,0.060
'1:00.464',-0.130,0.055
'1:00.467',-0.160,0.050
'1:00.469',-0.140,0.030
'1:00.472',-0.160,0.035
'1:00.475',-0.220,0.055
'1:00.478',-0.260,0.075
'1:00.481',-0.230,0.065
'1:00.483',-0.190,0.045
'1:00.486',-0.155,0.030
'1:00.489',-0.140,0.045
'1:00.492',-0.135,0.045
'1:00.494',-0.135,0.050
'1:00.497',-0.155,0.055
'1:00.500',-0.190,0.065
'1:00.503',-0.195,0.055
'1:00.506',-0.175,0.045
'1:00.508',-0.155,0.050
'1:00.511',-0.125,0.050
'1:00.514',-0.135,0.055
'1:00.517',-0.145,0.035
'1:00.519',-0.160,0.030
'1:00.522',-0.155,0.055
'1:00.525',-0.140,0.080
'1:00.528',-0.125,0.060
'1:00.531',-0.125,0.050
'1:00.533',-0.135,0.035
'1:00.536',-0.150,0.045
'1:00.539',-0.135,0.055
'1:00.542',-0.100,0.070
'1:00.544',-0.105,0.060
'1:00.547',-0.115,0.085
'1:00.550',-0.110,0.065
'1:00.553',-0.110,0.055
'1:00.556',-0.090,0.065
'1:00.558',-0.070,0.075
'1:00.561',-0.070,0.085
'1:00.564',-0.060,0.080
'1:00.567',-0.065,0.070
'1:00.569',-0.050,0.085
'1:00.572',0.000,0.090
'1:00.575',0.055,0.085
'1:00.578',0.090,0.075
'1:00.581',0.105,0.085
'1:00.583',0.050,0.075
'1:00.586',-0.030,0.060
'1:00.589',-0.110,0.065
'1:00.592',-0.180,0.080
'1:00.594',-0.185,0.080
'1:00.597',-0.140,0.060
'1:00.600',-0.100,0.050
'1:00.603',-0.095,0.035
'1:00.606',-0.130,0.040
'1:00.608',-0.190,0.050
'1:00.611',-0.205,0.060
'1:00.614',-0.195,0.055
'1:00.617',-0.175,0.070
'1:00.619',-0.150,0.050
'1:00.622',-0.145,0.050
'1:00.625',-0.140,0.070
'1:00.628',-0.120,0.070
'1:00.631',-0.105,0.060
'1:00.633',-0.080,0.045
'1:00.636',-0.035,0.050
'1:00.639',0.005,0.060
'1:00.642',0.050,0.100
'1:00.644',0.045,0.070
'1:00.647',-0.020,0.065
'1:00.650',-0.140,0.045
'1:00.653',-0.235,0.050
'1:00.656',-0.270,0.045
'1:00.658',-0.235,0.045
'1:00.661',-0.185,0.040
'1:00.664',-0.175,0.055
'1:00.667',-0.180,0.055
'1:00.669',-0.185,0.020
'1:00.672',-0.180,0.030
'1:00.675',-0.150,0.045
'1:00.678',-0.125,0.040
'1:00.681',-0.130,0.030
'1:00.683',-0.125,0.015
'1:00.686',-0.135,0.025
'1:00.689',-0.145,0.045
'1:00.692',-0.145,0.045
'1:00.694',-0.130,0.040
'1:00.697',-0.105,0.035
'1:00.700',-0.110,0.035
'1:00.703',-0.110,0.045
'1:00.706',-0.130,0.045
'1:00.708',-0.120,0.050
'1:00.711',-0.105,0.045
'1:00.714',-0.070,0.060
'1:00.717',-0.080,0.035
'1:00.719',-0.105,0.025
'1:00.722',-0.090,0.035
'1:00.725',-0.025,0.045
'1:00.728',0.070,0.040
'1:00.731',0.100,0.025
'1:00.733',0.150,0.015
'1:00.736',0.220,0.025
'1:00.739',0.315,0.045
'1:00.742',0.440,0.040
'1:00.744',0.550,0.040
'1:00.747',0.680,0.035
'1:00.750',0.820,0.050
'1:00.753',0.960,0.035
'1:00.756',1.090,0.030
'1:00.758',1.160,0.050
'1:00.761',1.140,0.060
'1:00.764',1.045,0.055
'1:00.767',0.925,0.025
'1:00.769',0.760,0.005
'1:00.772',0.500,0.035
'1:00.775',0.215,0.065
'1:00.778',-0.005,0.065
'1:00.781',-0.150,0.070
'1:00.783',-0.275,0.070
'1:00.786',-0.365,0.095
'1:00.789',-0.395,0.095
'1:00.792',-0.335,0.085
'1:00.794',-0.235,0.065
'1:00.797',-0.095,0.075
'1:00.800',0.035,0.060
'1:00.803',0.020,0.040
'1:00.806',-0.140,0.050
'1:00.808',-0.390,0.045
'1:00.811',-0.485,0.075
'1:00.814',-0.370,0.060
'1:00.817',-0.165,0.040
'1:00.819',-0.090,0.010
'1:00.822',-0.190,0.020
'1:00.825',-0.390,0.035
'1:00.828',-0.530,0.015
'1:00.831',-0.540,0.020
'1:00.833',-0.465,0.015
'1:00.836',-0.385,0.040
'1:00.839',-0.340,0.035
'1:00.842',-0.335,0.030
'1:00.844',-0.310,0.035
'1:00.847',-0.300,0.035
'1:00.850',-0.310,0.030
'1:00.853',-0.360,0.015
'1:00.856',-0.380,0.020
'1:00.858',-0.375,0.045
'1:00.861',-0.350,0.065
'1:00.864',-0.320,0.040
'1:00.867',-0.300,0.020
'1:00.869',-0.300,0.010
'1:00.872',-0.295,0.015
'1:00.875',-0.285,0.020
'1:00.878',-0.295,0.015
'1:00.881',-0.280,0.000
'1:00.883',-0.285,0.005
'1:00.886',-0.265,0.020
'1:00.889',-0.275,0.025
'1:00.892',-0.270,0.030
'1:00.894',-0.270,0.020
'1:00.897',-0.270,0.025
'1:00.900',-0.255,0.025
'1:00.903',-0.245,0.005
'1:00.906',-0.215,0.010
'1:00.908',-0.195,0.045
'1:00.911',-0.205,0.055
'1:00.914',-0.190,0.035
'1:00.917',-0.185,0.010
'1:00.919',-0.185,0.010
'1:00.922',-0.210,0.025
'1:00.925',-0.245,0.035
'1:00.928',-0.265,0.020
'1:00.931',-0.255,0.015
'1:00.933',-0.250,0.030
'1:00.936',-0.260,0.030
'1:00.939',-0.275,0.035
'1:00.942',-0.300,0.035
'1:00.944',-0.335,0.025
'1:00.947',-0.345,0.035
'1:00.950',-0.325,0.030
'1:00.953',-0.295,0.010
'1:00.956',-0.255,0.020
'1:00.958',-0.245,0.030
'1:00.961',-0.235,0.030
'1:00.964',-0.240,0.020
'1:00.967',-0.235,0.010
'1:00.969',-0.250,0.015
'1:00.972',-0.235,0.025
'1:00.975',-0.210,0.015
'1:00.978',-0.190,0.030
'1:00.981',-0.200,0.040
'1:00.983',-0.220,0.020
'1:00.986',-0.230,0.010
'1:00.989',-0.230,0.015
'1:00.992',-0.230,0.035
'1:00.994',-0.215,0.040
'1:00.997',-0.220,0.025
'1:01.000',-0.215,0.015
'1:01.003',-0.220,0.020
'1:01.006',-0.215,0.035
'1:01.008',-0.210,0.040
'1:01.011',-0.205,0.035
'1:01.014',-0.190,0.035
'1:01.017',-0.195,0.020
'1:01.019',-0.185,0.015
'1:01.022',-0.155,0.020
'1:01.025',-0.095,0.035
'1:01.028',-0.055,0.035
'1:01.031',-0.085,0.030
'1:01.033',-0.145,0.020
'1:01.036',-0.195,0.025
'1:01.039',-0.180,0.040
'1:01.042',-0.130,0.040
'1:01.044',-0.070,0.025
'1:01.047',-0.035,0.035
'1:01.050',-0.050,0.040
'1:01.053',-0.070,0.030
'1:01.056',-0.090,0.030
'1:01.058',-0.130,0.035
'1:01.061',-0.220,0.050
'1:01.064',-0.305,0.050
'1:01.067',-0.330,0.020
'1:01.069',-0.260,0.015
'1:01.072',-0.185,0.055
'1:01.075',-0.145,0.075
'1:01.078',-0.135,0.060
'1:01.081',-0.145,0.040
'1:01.083',-0.155,0.040
'1:01.086',-0.155,0.050
'1:01.089',-0.160,0.045
'1:01.092',-0.155,0.040
'1:01.094',-0.140,0.060
'1:01.097',-0.125,0.070
'1:01.100',-0.115,0.055
'1:01.103',-0.120,0.040
'1:01.106',-0.120,0.055
'1:01.108',-0.120,0.070
'1:01.111',-0.130,0.055
'1:01.114',-0.140,0.035
'1:01.117',-0.160,0.040
'1:01.119',-0.180,0.050
'1:01.122',-0.175,0.060
'1:01.125',-0.160,0.045
'1:01.128',-0.170,0.050
'1:01.131',-0.175,0.065
'1:01.133',-0.195,0.040
'1:01.136',-0.195,0.025
'1:01.139',-0.200,0.045
'1:01.142',-0.190,0.070
'1:01.144',-0.205,0.075
'1:01.147',-0.210,0.065
'1:01.150',-0.205,0.040
'1:01.153',-0.200,0.050
'1:01.156',-0.170,0.060
'1:01.158',-0.165,0.055
'1:01.161',-0.155,0.055
'1:01.164',-0.140,0.065
'1:01.167',-0.125,0.065
'1:01.169',-0.130,0.045
'1:01.172',-0.190,0.050
'1:01.175',-0.250,0.060
'1:01.178',-0.285,0.075
'1:01.181',-0.260,0.050
'1:01.183',-0.220,0.035
'1:01.186',-0.160,0.035
'1:01.189',-0.135,0.055
'1:01.192',-0.140,0.055
'1:01.194',-0.175,0.045
'1:01.197',-0.210,0.040
'1:01.200',-0.220,0.035
'1:01.203',-0.230,0.040
'1:01.206',-0.210,0.035
'1:01.208',-0.175,0.030
'1:01.211',-0.100,0.040
'1:01.214',-0.070,0.045
'1:01.217',-0.075,0.025
'1:01.219',-0.100,0.015
'1:01.222',-0.095,0.005
'1:01.225',-0.110,0.015
'1:01.228',-0.125,0.005
'1:01.231',-0.150,-0.020
'1:01.233',-0.180,-0.055
'1:01.236',-0.200,-0.060
'1:01.239',-0.235,-0.050
'1:01.242',-0.320,-0.070
'1:01.244',-0.470,-0.095
'1:01.247',-0.715,-0.095
'1:01.250',-1.070,-0.105
'1:01.253',-1.455,-0.110
'1:01.256',-1.800,-0.120
'1:01.258',-2.065,-0.085
'1:01.261',-2.200,-0.070
'1:01.264',-2.225,-0.065
'1:01.267',-2.210,-0.085
'1:01.269',-2.190,-0.080
'1:01.272',-2.155,-0.055
'1:01.275',-2.100,-0.030
'1:01.278',-2.020,-0.050
'1:01.281',-1.925,-0.035
'1:01.283',-1.840,-0.015
'1:01.286',-1.735,-0.005
'1:01.289',-1.635,0.025
'1:01.292',-1.525,0.035
'1:01.294',-1.415,0.050
'1:01.297',-1.305,0.070
'1:01.300',-1.175,0.065
'1:01.303',-1.060,0.050
'1:01.306',-0.975,0.040
'1:01.308',-0.920,0.080
'1:01.311',-0.865,0.090
'1:01.314',-0.855,0.085
'1:01.317',-0.845,0.050
'1:01.319',-0.800,0.045
'1:01.322',-0.720,0.055
'1:01.325',-0.630,0.070
'1:01.328',-0.565,0.065
'1:01.331',-0.530,0.040
'1:01.333',-0.510,0.035
'1:01.336',-0.490,0.060
'1:01.339',-0.450,0.050
'1:01.342',-0.405,0.045
'1:01.344',-0.325,0.055
'1:01.347',-0.250,0.065
'1:01.350',-0.205,0.075
'1:01.353',-0.160,0.050
'1:01.356',-0.110,0.045
'1:01.358',-0.035,0.085
'1:01.361',0.050,0.095
'1:01.364',0.110,0.090
'1:01.367',0.115,0.075
'1:01.369',0.080,0.065
'1:01.372',0.080,0.095
'1:01.375',0.115,0.110
'1:01.378',0.165,0.090
'1:01.381',0.230,0.080
'1:01.383',0.230,0.090
'1:01.386',0.235,0.095
'1:01.389',0.240,0.090
'1:01.392',0.260,0.095
'1:01.394',0.280,0.090
'1:01.397',0.295,0.100
'1:01.400',0.295,0.100
'1:01.403',0.295,0.080
'1:01.406',0.315,0.085
'1:01.408',0.335,0.105
'1:01.411',0.365,0.115
'1:01.414',0.380,0.120
'1:01.417',0.395,0.095
'1:01.419',0.390,0.085
'1:01.422',0.400,0.110
'1:01.425',0.400,0.110
'1:01.428',0.435,0.100
'1:01.431',0.480,0.090
'1:01.433',0.520,0.105
'1:01.436',0.530,0.115
'1:01.439',0.530,0.115
'1:01.442',0.515,0.115
'1:01.444',0.505,0.110
'1:01.447',0.490,0.125
'1:01.450',0.515,0.120
'1:01.453',0.515,0.095
'1:01.456',0.540,0.100
'1:01.458',0.560,0.110
'1:01.461',0.580,0.135
'1:01.464',0.590,0.140
'1:01.467',0.595,0.115
'1:01.469',0.595,0.105
'1:01.472',0.620,0.120
'1:01.475',0.635,0.135
'1:01.478',0.640,0.130
'1:01.481',0.620,0.100
'1:01.483',0.625,0.090
'1:01.486',0.645,0.105
'1:01.489',0.685,0.120
'1:01.492',0.715,0.120
'1:01.494',0.725,0.115
'1:01.497',0.705,0.110
'1:01.500',0.650,0.095
'1:01.503',0.605,0.095
'1:01.506',0.595,0.105
'1:01.508',0.605,0.100
'1:01.511',0.605,0.105
'1:01.514',0.585,0.100
'1:01.517',0.535,0.085
'1:01.519',0.485,0.070
'1:01.522',0.475,0.095
'1:01.525',0.485,0.110
'1:01.528',0.525,0.100
'1:01.531',0.505,0.075
'1:01.533',0.480,0.055
'1:01.536',0.445,0.065
'1:01.539',0.425,0.075
'1:01.542',0.400,0.090
'1:01.544',0.395,0.090
'1:01.547',0.375,0.080
'1:01.550',0.345,0.070
'1:01.553',0.290,0.065
'1:01.556',0.260,0.060
'1:01.558',0.245,0.060
'1:01.561',0.250,0.065
'1:01.564',0.245,0.065
'1:01.567',0.220,0.065
'1:01.569',0.195,0.040
'1:01.572',0.170,0.050
'1:01.575',0.150,0.065
'1:01.578',0.140,0.070
'1:01.581',0.120,0.065
'1:01.583',0.110,0.045
'1:01.586',0.085,0.030
'1:01.589',0.050,0.045
'1:01.592',0.025,0.055
'1:01.594',0.010,0.045
'1:01.597',0.000,0.025
'1:01.600',-0.005,0.035
'1:01.603',-0.025,0.050
'1:01.606',-0.055,0.050
'1:01.608',-0.075,0.045
'1:01.611',-0.115,0.035
'1:01.614',-0.105,0.040
'1:01.617',-0.095,0.040
'1:01.619',-0.095,0.035
'1:01.622',-0.090,0.040
'1:01.625',-0.070,0.060
'1:01.628',-0.015,0.060
'1:01.631',-0.015,0.055
'1:01.633',-0.035,0.035
'1:01.636',-0.105,0.020
'1:01.639',-0.140,0.045
'1:01.642',-0.155,0.055
'1:01.644',-0.170,0.055
'1:01.647',-0.190,0.055
'1:01.650',-0.225,0.040
'1:01.653',-0.250,0.035
'1:01.656',-0.260,0.055
'1:01.658',-0.255,0.065
'1:01.661',-0.225,0.040
'1:01.664',-0.210,0.045
'1:01.667',-0.205,0.050
'1:01.669',-0.215,0.050
'1:01.672',-0.200,0.050
'1:01.675',-0.190,0.060
'1:01.678',-0.190,0.060
'1:01.681',-0.205,0.065
'1:01.683',-0.215,0.060
'1:01.686',-0.215,0.045
'1:01.689',-0.215,0.045
'1:01.692',-0.205,0.050
'1:01.694',-0.190,0.055
'1:01.697',-0.190,0.070
'1:01.700',-0.205,0.055
'1:01.703',-0.225,0.045
'1:01.706',-0.230,0.040
'1:01.708',-0.230,0.045
'1:01.711',-0.220,0.065
'1:01.714',-0.220,0.060
'1:01.717',-0.225,0.035
'1:01.719',-0.240,0.025
'1:01.722',-0.235,0.035
'1:01.725',-0.215,0.065
'1:01.728',-0.160,0.050
'1:01.731',-0.170,0.050
'1:01.733',-0.195,0.040
'1:01.736',-0.230,0.050
'1:01.739',-0.240,0.060
'1:01.742',-0.230,0.050
'1:01.744',-0.220,0.040
'1:01.747',-0.220,0.050
'1:01.750',-0.240,0.060
'1:01.753',-0.270,0.045
'1:01.756',-0.285,0.040
'1:01.758',-0.260,0.045
'1:01.761',-0.250,0.065
'1:01.764',-0.265,0.065
'1:01.767',-0.270,0.045
'1:01.769',-0.275,0.025
'1:01.772',-0.275,0.025
'1:01.775',-0.260,0.060
'1:01.778',-0.270,0.060
'1:01.781',-0.265,0.050
'1:01.783',-0.270,0.050
'1:01.786',-0.270,0.040
'1:01.789',-0.255,0.060
'1:01.792',-0.245,0.065
'1:01.794',-0.235,0.050
'1:01.797',-0.250,0.040
'1:01.800',-0.270,0.030
'1:01.803',-0.285,0.050
'1:01.806',-0.275,0.055
'1:01.808',-0.270,0.045
'1:01.811',-0.265,0.050
'1:01.814',-0.250,0.070
'1:01.817',-0.245,0.070
'1:01.819',-0.245,0.045
'1:01.822',-0.250,0.030
'1:01.825',-0.250,0.050
'1:01.828',-0.245,0.065
'1:01.831',-0.265,0.055
'1:01.833',-0.270,0.030
'1:01.836',-0.285,0.015
'1:01.839',-0.285,0.030
'1:01.842',-0.280,0.060
'1:01.844',-0.280,0.070
'1:01.847',-0.285,0.055
'1:01.850',-0.280,0.035
'1:01.853',-0.300,0.030
'1:01.856',-0.285,0.055
'1:01.858',-0.290,0.060
'1:01.861',-0.280,0.060
'1:01.864',-0.285,0.050
'1:01.867',-0.265,0.050
'1:01.869',-0.270,0.055
'1:01.872',-0.260,0.055
'1:01.875',-0.240,0.045
'1:01.878',-0.230,0.040
'1:01.881',-0.225,0.065
'1:01.883',-0.245,0.060
'1:01.886',-0.275,0.045
'1:01.889',-0.285,0.045
'1:01.892',-0.280,0.060
'1:01.894',-0.275,0.070
'1:01.897',-0.280,0.065
'1:01.900',-0.295,0.035
'1:01.903',-0.310,0.030
'1:01.906',-0.300,0.045
'1:01.908',-0.285,0.070
'1:01.911',-0.280,0.060
'1:01.914',-0.275,0.045
'1:01.917',-0.285,0.045
'1:01.919',-0.295,0.060
'1:01.922',-0.285,0.065
'1:01.925',-0.295,0.070
'1:01.928',-0.290,0.050
'1:01.931',-0.305,0.045
'1:01.933',-0.305,0.055
'1:01.936',-0.300,0.055
'1:01.939',-0.275,0.055
'1:01.942',-0.260,0.070
'1:01.944',-0.260,0.075
'1:01.947',-0.260,0.075
'1:01.950',-0.270,0.060
'1:01.953',-0.270,0.040
'1:01.956',-0.255,0.045
'1:01.958',-0.230,0.060
'1:01.961',-0.215,0.075
'1:01.964',-0.215,0.055
'1:01.967',-0.235,0.040
'1:01.969',-0.265,0.055
'1:01.972',-0.275,0.070
'1:01.975',-0.270,0.050
'1:01.978',-0.245,0.045
'1:01.981',-0.245,0.050
'1:01.983',-0.265,0.050
'1:01.986',-0.280,0.055
'1:01.989',-0.270,0.050
'1:01.992',-0.245,0.075
'1:01.994',-0.225,0.080
'1:01.997',-0.210,0.070
'1:02.000',-0.240,0.060
'1:02.003',-0.235,0.045
'1:02.006',-0.245,0.040
'1:02.008',-0.225,0.060
'1:02.011',-0.215,0.055
'1:02.014',-0.225,0.050
'1:02.017',-0.240,0.055
'1:02.019',-0.280,0.055
'1:02.022',-0.280,0.065
'1:02.025',-0.295,0.050
'1:02.028',-0.270,0.040
'1:02.031',-0.265,0.045
'1:02.033',-0.250,0.060
'1:02.036',-0.255,0.040
'1:02.039',-0.250,0.040
'1:02.042',-0.245,0.065
'1:02.044',-0.240,0.070
'1:02.047',-0.230,0.060
'1:02.050',-0.245,0.045
'1:02.053',-0.255,0.030
'1:02.056',-0.260,0.035
'1:02.058',-0.245,0.050
'1:02.061',-0.245,0.040
'1:02.064',-0.225,0.035
'1:02.067',-0.220,0.040
'1:02.069',-0.210,0.050
'1:02.072',-0.185,0.045
'1:02.075',-0.190,0.045
'1:02.078',-0.185,0.045
'1:02.081',-0.200,0.050
'1:02.083',-0.230,0.045
'1:02.086',-0.275,0.025
'1:02.089',-0.295,0.035
'1:02.092',-0.300,0.050
'1:02.094',-0.295,0.065
'1:02.097',-0.285,0.060
'1:02.100',-0.305,0.035
'1:02.103',-0.315,0.035
'1:02.106',-0.315,0.040
'1:02.108',-0.305,0.055
'1:02.111',-0.285,0.045
'1:02.114',-0.280,0.040
'1:02.117',-0.265,0.045
'1:02.119',-0.275,0.050
'1:02.122',-0.280,0.050
'1:02.125',-0.290,0.045
'1:02.128',-0.280,0.050
'1:02.131',-0.280,0.060
'1:02.133',-0.275,0.035
'1:02.136',-0.280,0.025
'1:02.139',-0.270,0.040
'1:02.142',-0.270,0.045
'1:02.144',-0.305,0.055
'1:02.147',-0.295,0.040
'1:02.150',-0.300,0.015
'1:02.153',-0.280,0.025
'1:02.156',-0.245,0.030
'1:02.158',-0.165,0.035
'1:02.161',-0.095,0.025
'1:02.164',-0.030,0.045
'1:02.167',0.050,0.045
'1:02.169',0.150,0.035
'1:02.172',0.245,0.025
'1:02.175',0.340,0.035
'1:02.178',0.450,0.045
'1:02.181',0.570,0.060
'1:02.183',0.700,0.050
'1:02.186',0.810,0.040
'1:02.189',0.930,0.045
'1:02.192',0.990,0.090
'1:02.194',0.970,0.065
'1:02.197',0.885,0.055
'1:02.200',0.745,0.040
'1:02.203',0.560,0.055
'1:02.206',0.270,0.065
'1:02.208',-0.095,0.090
'1:02.211',-0.360,0.110
'1:02.214',-0.520,0.125
'1:02.217',-0.595,0.115
'1:02.219',-0.605,0.095
'1:02.222',-0.575,0.090
'1:02.225',-0.510,0.110
'1:02.228',-0.470,0.110
'1:02.231',-0.460,0.085
'1:02.233',-0.465,0.060
'1:02.236',-0.460,0.075
'1:02.239',-0.455,0.110
'1:02.242',-0.460,0.100
'1:02.244',-0.450,0.075
'1:02.247',-0.455,0.070
'1:02.250',-0.445,0.055
'1:02.253',-0.450,0.060
'1:02.256',-0.445,0.045
'1:02.258',-0.420,0.050
'1:02.261',-0.410,0.065
'1:02.264',-0.400,0.060
'1:02.267',-0.390,0.040
'1:02.269',-0.385,0.020
'1:02.272',-0.365,0.030
'1:02.275',-0.355,0.060
'1:02.278',-0.350,0.045
'1:02.281',-0.350,0.050
'1:02.283',-0.355,0.040
'1:02.286',-0.350,0.045
'1:02.289',-0.340,0.065
'1:02.292',-0.325,0.050
'1:02.294',-0.320,0.030
'1:02.297',-0.325,0.035
'1:02.300',-0.320,0.040
'1:02.303',-0.330,0.025
'1:02.306',-0.345,0.035
'1:02.308',-0.340,0.030
'1:02.311',-0.335,0.065
'1:02.314',-0.350,0.055
'1:02.317',-0.355,0.020
'1:02.319',-0.360,0.010
'1:02.322',-0.345,0.030
'1:02.325',-0.335,0.040
'1:02.328',-0.325,0.035
'1:02.331',-0.335,0.030
'1:02.333',-0.325,0.020
'1:02.336',-0.325,0.035
'1:02.339',-0.315,0.035
'1:02.342',-0.305,0.035
'1:02.344',-0.300,0.025
'1:02.347',-0.295,0.040
'1:02.350',-0.300,0.015
'1:02.353',-0.300,0.010
'1:02.356',-0.285,0.025
'1:02.358',-0.270,0.050
'1:02.361',-0.260,0.060
'1:02.364',-0.255,0.030
'1:02.367',-0.265,0.015
'1:02.369',-0.250,0.010
'1:02.372',-0.250,0.030
'1:02.375',-0.260,0.030
'1:02.378',-0.260,0.025
'1:02.381',-0.265,0.035
'1:02.383',-0.255,0.035
'1:02.386',-0.260,0.035
'1:02.389',-0.270,0.025
'1:02.392',-0.290,0.020
'1:02.394',-0.300,0.025
'1:02.397',-0.305,0.035
'1:02.400',-0.305,0.020
'1:02.403',-0.300,0.005
'1:02.406',-0.290,0.020
'1:02.408',-0.290,0.050
'1:02.411',-0.295,0.035
'1:02.414',-0.300,0.030
'1:02.417',-0.300,0.010
'1:02.419',-0.290,0.000
'1:02.422',-0.280,0.015
'1:02.425',-0.275,0.020
'1:02.428',-0.260,0.020
'1:02.431',-0.275,0.040
'1:02.433',-0.275,0.020
'1:02.436',-0.290,0.005
'1:02.439',-0.290,0.015
'1:02.442',-0.300,0.025
'1:02.444',-0.290,0.020
'1:02.447',-0.285,0.020
'1:02.450',-0.275,0.010
'1:02.453',-0.265,0.015
'1:02.456',-0.245,0.030
'1:02.458',-0.240,0.045
'1:02.461',-0.220,0.030
'1:02.464',-0.220,0.015
'1:02.467',-0.230,0.015
'1:02.469',-0.225,0.005
'1:02.472',-0.220,0.010
'1:02.475',-0.210,0.045
'1:02.478',-0.190,0.060
'1:02.481',-0.180,0.050
'1:02.483',-0.160,0.025
'1:02.486',-0.165,0.010
'1:02.489',-0.155,0.030
'1:02.492',-0.150,0.040
'1:02.494',-0.135,0.030
'1:02.497',-0.140,0.030
'1:02.500',-0.145,0.020
'1:02.503',-0.185,0.035
'1:02.506',-0.195,0.045
'1:02.508',-0.200,0.040
'1:02.511',-0.165,0.035
'1:02.514',-0.145,0.030
'1:02.517',-0.140,0.035
'1:02.519',-0.125,0.020
'1:02.522',-0.125,0.025
'1:02.525',-0.150,0.035
'1:02.528',-0.155,0.065
'1:02.531',-0.155,0.060
'1:02.533',-0.170,0.035
'1:02.536',-0.180,0.025
'1:02.539',-0.190,0.030
'1:02.542',-0.200,0.050
'1:02.544',-0.185,0.050
'1:02.547',-0.165,0.040
'1:02.550',-0.160,0.060
'1:02.553',-0.165,0.055
'1:02.556',-0.155,0.050
'1:02.558',-0.135,0.040
'1:02.561',-0.135,0.035
'1:02.564',-0.160,0.045
'1:02.567',-0.175,0.035
'1:02.569',-0.185,0.025
'1:02.572',-0.175,0.030
'1:02.575',-0.180,0.060
'1:02.578',-0.170,0.070
'1:02.581',-0.160,0.055
'1:02.583',-0.165,0.030
'1:02.586',-0.180,0.030
'1:02.589',-0.210,0.050
'1:02.592',-0.200,0.050
'1:02.594',-0.185,0.045
'1:02.597',-0.175,0.045
'1:02.600',-0.165,0.040
'1:02.603',-0.175,0.050
'1:02.606',-0.185,0.045
'1:02.608',-0.195,0.050
'1:02.611',-0.170,0.055
'1:02.614',-0.160,0.055
'1:02.617',-0.145,0.040
'1:02.619',-0.150,0.025
'1:02.622',-0.155,0.045
'1:02.625',-0.160,0.070
'1:02.628',-0.190,0.065
'1:02.631',-0.205,0.045
'1:02.633',-0.245,0.035
'1:02.636',-0.255,0.050
'1:02.639',-0.225,0.045
'1:02.642',-0.200,0.040
'1:02.644',-0.200,0.030
'1:02.647',-0.205,0.045
'1:02.650',-0.190,0.055
'1:02.653',-0.185,0.040
'1:02.656',-0.160,0.035
'1:02.658',-0.150,0.060
'1:02.661',-0.175,0.050
'1:02.664',-0.205,0.050
'1:02.667',-0.220,0.030
'1:02.669',-0.220,0.030
'1:02.672',-0.190,0.040
'1:02.675',-0.190,0.065
'1:02.678',-0.180,0.075
'1:02.681',-0.165,0.050
'1:02.683',-0.155,0.035
'1:02.686',-0.160,0.055
'1:02.689',-0.155,0.055
'1:02.692',-0.120,0.060
'1:02.694',-0.110,0.055
'1:02.697',-0.090,0.065
'1:02.700',-0.085,0.075
'1:02.703',-0.075,0.055
'1:02.706',-0.085,0.065
'1:02.708',-0.090,0.065
'1:02.711',-0.110,0.070
'1:02.714',-0.120,0.075
'1:02.717',-0.120,0.050
'1:02.719',-0.135,0.030
'1:02.722',-0.155,0.060
'1:02.725',-0.170,0.085
'1:02.728',-0.170,0.080
'1:02.731',-0.155,0.065
'1:02.733',-0.160,0.030
'1:02.736',-0.170,0.035
'1:02.739',-0.170,0.045
'1:02.742',-0.150,0.055
'1:02.744',-0.135,0.055
'1:02.747',-0.125,0.040
'1:02.750',-0.120,0.045
'1:02.753',-0.135,0.055
'1:02.756',-0.150,0.045
'1:02.758',-0.170,0.045
'1:02.761',-0.160,0.045
'1:02.764',-0.135,0.050
'1:02.767',-0.115,0.040
'1:02.769',-0.125,0.025
'1:02.772',-0.120,0.025
'1:02.775',-0.095,0.050
'1:02.778',-0.055,0.065
'1:02.781',-0.030,0.060
'1:02.783',-0.035,0.040
'1:02.786',-0.045,0.035
'1:02.789',-0.085,0.040
'1:02.792',-0.090,0.060
'1:02.794',-0.105,0.070
'1:02.797',-0.115,0.040
'1:02.800',-0.110,0.045
'1:02.803',-0.080,0.045
'1:02.806',-0.095,0.070
'1:02.808',-0.115,0.070
'1:02.811',-0.155,0.060
'1:02.814',-0.180,0.055
'1:02.817',-0.195,0.055
'1:02.819',-0.200,0.055
'1:02.822',-0.205,0.035
'1:02.825',-0.205,0.040
'1:02.828',-0.205,0.060
'1:02.831',-0.185,0.075
'1:02.833',-0.160,0.055
'1:02.836',-0.130,0.035
'1:02.839',-0.095,0.040
'1:02.842',-0.060,0.050
'1:02.844',-0.065,0.045
'1:02.847',-0.110,0.025
'1:02.850',-0.160,0.025
'1:02.853',-0.205,0.025
'1:02.856',-0.205,0.045
'1:02.858',-0.205,0.035
'1:02.861',-0.180,0.030
'1:02.864',-0.170,0.015
'1:02.867',-0.145,0.020
'1:02.869',-0.080,0.020
'1:02.872',0.005,0.010
'1:02.875',0.075,0.025
'1:02.878',0.140,0.040
'1:02.881',0.190,0.035
'1:02.883',0.245,0.015
'1:02.886',0.330,0.000
'1:02.889',0.440,0.015
'1:02.892',0.585,0.030
'1:02.894',0.730,0.040
'1:02.897',0.855,0.020
'1:02.900',0.965,0.020
'1:02.903',1.085,0.015
'1:02.906',1.230,0.050
'1:02.908',1.330,0.050
'1:02.911',1.285,0.050
'1:02.914',1.135,0.035
'1:02.917',0.925,0.030
'1:02.919',0.660,0.020
'1:02.922',0.320,0.025
'1:02.925',-0.005,0.050
'1:02.928',-0.215,0.070
'1:02.931',-0.315,0.095
'1:02.933',-0.350,0.085
'1:02.936',-0.345,0.070
'1:02.939',-0.285,0.075
'1:02.942',-0.225,0.095
'1:02.944',-0.210,0.075
'1:02.947',-0.245,0.070
'1:02.950',-0.310,0.050
'1:02.953',-0.335,0.060
'1:02.956',-0.300,0.075
'1:02.958',-0.240,0.080
'1:02.961',-0.215,0.055
'1:02.964',-0.230,0.070
'1:02.967',-0.255,0.045
'1:02.969',-0.240,0.015
'1:02.972',-0.235,0.010
'1:02.975',-0.270,0.025
'1:02.978',-0.320,0.040
'1:02.981',-0.330,0.025
'1:02.983',-0.305,0.010
'1:02.986',-0.300,0.000
'1:02.989',-0.290,0.010
'1:02.992',-0.265,0.020
'1:02.994',-0.245,0.020
'1:02.997',-0.235,0.010
'1:03.000',-0.230,0.005
'1:03.003',-0.235,0.010
'1:03.006',-0.225,0.025
'1:03.008',-0.215,0.010
'1:03.011',-0.210,0.010
'1:03.014',-0.190,0.020
'1:03.017',-0.175,0.020
'1:03.019',-0.190,-0.010
'1:03.022',-0.220,-0.010
'1:03.025',-0.235,0.015
'1:03.028',-0.220,0.040
'1:03.031',-0.210,0.030
'1:03.033',-0.200,0.005
'1:03.036',-0.190,0.000
'1:03.039',-0.180,0.020
'1:03.042',-0.175,0.015
'1:03.044',-0.155,0.005
'1:03.047',-0.130,0.015
'1:03.050',-0.105,0.025
'1:03.053',-0.075,0.035
'1:03.056',-0.075,0.015
'1:03.058',-0.125,0.010
'1:03.061',-0.195,0.010
'1:03.064',-0.240,0.005
'1:03.067',-0.245,-0.005
'1:03.069',-0.210,-0.005
'1:03.072',-0.175,0.030
'1:03.075',-0.165,0.030
'1:03.078',-0.150,0.015
'1:03.081',-0.115,0.025
'1:03.083',-0.080,0.020
'1:03.086',-0.070,0.025
'1:03.089',-0.095,0.010
'1:03.092',-0.125,0.010
'1:03.094',-0.135,0.025
'1:03.097',-0.135,0.030
'1:03.100',-0.115,0.015
'1:03.103',-0.090,0.010
'1:03.106',-0.080,0.020
'1:03.108',-0.070,0.040
'1:03.111',-0.055,0.025
'1:03.114',-0.045,0.015
'1:03.117',-0.015,0.005
'1:03.119',-0.035,0.020
'1:03.122',-0.070,0.000
'1:03.125',-0.110,0.010
'1:03.128',-0.105,0.025
'1:03.131',-0.065,0.030
'1:03.133',-0.050,0.010
'1:03.136',-0.050,-0.010
'1:03.139',-0.060,0.005
'1:03.142',-0.055,0.020
'1:03.144',-0.015,0.015
'1:03.147',0.005,0.030
'1:03.150',0.015,0.005
'1:03.153',0.000,0.015
'1:03.156',-0.025,0.015
'1:03.158',-0.030,0.000
'1:03.161',0.030,0.015
'1:03.164',0.085,0.025
'1:03.167',0.095,0.025
'1:03.169',0.045,0.005
'1:03.172',-0.020,0.000
'1:03.175',-0.030,0.030
'1:03.178',-0.020,0.035
'1:03.181',0.015,0.025
'1:03.183',0.025,0.000
'1:03.186',0.025,0.010
'1:03.189',0.015,0.025
'1:03.192',0.010,0.030
'1:03.194',0.000,0.020
'1:03.197',0.000,0.040
'1:03.200',0.000,0.040
'1:03.203',-0.005,0.030
'1:03.206',0.005,0.020
'1:03.208',0.020,0.030
'1:03.211',0.020,0.050
'1:03.214',-0.010,0.035
'1:03.217',-0.055,0.020
'1:03.219',-0.100,0.040
'1:03.222',-0.100,0.050
'1:03.225',-0.070,0.045
'1:03.228',-0.050,0.040
'1:03.231',-0.050,0.040
'1:03.233',-0.105,0.040
'1:03.236',-0.100,0.025
'1:03.239',-0.095,0.035
'1:03.242',-0.090,0.055
'1:03.244',-0.085,0.060
'1:03.247',-0.075,0.035
'1:03.250',-0.085,0.015
'1:03.253',-0.110,0.020
'1:03.256',-0.100,0.050
'1:03.258',-0.085,0.040
'1:03.261',-0.065,0.040
'1:03.264',-0.070,0.050
'1:03.267',-0.045,0.040
'1:03.269',-0.055,0.030
'1:03.272',-0.040,0.035
'1:03.275',-0.035,0.050
'1:03.278',-0.050,0.045
'1:03.281',-0.080,0.050
'1:03.283',-0.115,0.030
'1:03.286',-0.145,0.020
'1:03.289',-0.170,0.035
'1:03.292',-0.170,0.040
'1:03.294',-0.145,0.030
'1:03.297',-0.115,0.030
'1:03.300',-0.115,0.030
'1:03.303',-0.160,0.010
'1:03.306',-0.200,0.010
'1:03.308',-0.210,0.025
'1:03.311',-0.215,0.045
'1:03.314',-0.220,0.035
'1:03.317',-0.220,0.015
'1:03.319',-0.215,0.010
'1:03.322',-0.190,0.025
'1:03.325',-0.170,0.030
'1:03.328',-0.170,0.035
'1:03.331',-0.165,0.040
'1:03.333',-0.180,0.025
'1:03.336',-0.190,0.025
'1:03.339',-0.185,0.010
'1:03.342',-0.165,0.015
'1:03.344',-0.150,0.035
'1:03.347',-0.140,0.030
'1:03.350',-0.135,0.010
'1:03.353',-0.150,0.030
'1:03.356',-0.150,0.035
'1:03.358',-0.125,0.050
'1:03.361',-0.105,0.020
'1:03.364',-0.105,0.035
'1:03.367',-0.105,0.035
'1:03.369',-0.100,0.020
'1:03.372',-0.110,0.030
'1:03.375',-0.120,0.045
'1:03.378',-0.100,0.060
'1:03.381',-0.090,0.050
'1:03.383',-0.120,0.035
'1:03.386',-0.145,0.010
'1:03.389',-0.145,0.035
'1:03.392',-0.125,0.040
'1:03.394',-0.115,0.040
'1:03.397',-0.110,0.035
'1:03.400',-0.130,0.040
'1:03.403',-0.145,0.030
'1:03.406',-0.145,0.020
'1:03.408',-0.110,0.035
'1:03.411',-0.075,0.040
'1:03.414',-0.080,0.035
'1:03.417',-0.110,0.010
'1:03.419',-0.140,0.015
'1:03.422',-0.150,0.035
'1:03.425',-0.140,0.055
'1:03.428',-0.120,0.045
'1:03.431',-0.125,0.020
'1:03.433',-0.130,0.005
'1:03.436',-0.115,0.020
'1:03.439',-0.080,0.025
'1:03.442',-0.030,0.030
'1:03.444',-0.010,0.035
'1:03.447',-0.055,0.050
'1:03.450',-0.135,0.030
'1:03.453',-0.185,0.010
'1:03.456',-0.200,0.020
'1:03.458',-0.185,0.035
'1:03.461',-0.160,0.035
'1:03.464',-0.150,0.020
'1:03.467',-0.140,0.025
'1:03.469',-0.140,0.030
'1:03.472',-0.140,0.030
'1:03.475',-0.125,0.020
'1:03.478',-0.115,0.035
'1:03.481',-0.125,0.045
'1:03.483',-0.130,0.025
'1:03.486',-0.130,0.010
'1:03.489',-0.120,0.025
'1:03.492',-0.095,0.055
'1:03.494',-0.100,0.055
'1:03.497',-0.140,0.020
'1:03.500',-0.160,0.020
'1:03.503',-0.155,0.030
'1:03.506',-0.140,0.030
'1:03.508',-0.125,0.025
'1:03.511',-0.115,0.030
'1:03.514',-0.150,0.045
'1:03.517',-0.155,0.025
'1:03.519',-0.175,0.000
'1:03.522',-0.170,0.005
'1:03.525',-0.130,0.020
'1:03.528',-0.035,0.020
'1:03.531',0.070,0.020
'1:03.533',0.155,0.015
'1:03.536',0.250,0.025
'1:03.539',0.355,0.030
'1:03.542',0.455,0.030
'1:03.544',0.540,0.010
'1:03.547',0.645,0.020
'1:03.550',0.790,0.020
'1:03.553',0.950,0.010
'1:03.556',1.090,0.025
'1:03.558',1.170,0.040
'1:03.561',1.155,0.055
'1:03.564',1.055,0.050
'1:03.567',0.900,0.015
'1:03.569',0.695,0.000
'1:03.572',0.375,0.030
'1:03.575',0.030,0.060
'1:03.578',-0.190,0.060
'1:03.581',-0.315,0.070
'1:03.583',-0.360,0.085
'1:03.586',-0.380,0.065
'1:03.589',-0.345,0.075
'1:03.592',-0.290,0.080
'1:03.594',-0.240,0.085
'1:03.597',-0.220,0.070
'1:03.600',-0.235,0.060
'1:03.603',-0.235,0.060
'1:03.606',-0.245,0.075
'1:03.608',-0.250,0.070
'1:03.611',-0.275,0.045
'1:03.614',-0.310,0.045
'1:03.617',-0.345,0.045
'1:03.619',-0.330,0.020
'1:03.622',-0.330,0.010
'1:03.625',-0.320,0.025
'1:03.628',-0.295,0.035
'1:03.631',-0.255,0.035
'1:03.633',-0.245,0.005
'1:03.636',-0.260,0.000
'1:03.639',-0.265,0.015
'1:03.642',-0.275,0.025
'1:03.644',-0.260,0.020
'1:03.647',-0.260,0.030
'1:03.650',-0.260,0.035
'1:03.653',-0.265,0.015
'1:03.656',-0.260,0.010
'1:03.658',-0.270,0.015
'1:03.661',-0.255,0.040
'1:03.664',-0.240,0.030
'1:03.667',-0.250,0.020
'1:03.669',-0.255,0.020
'1:03.672',-0.255,0.040
'1:03.675',-0.220,0.035
'1:03.678',-0.190,0.005
'1:03.681',-0.190,0.020
'1:03.683',-0.250,0.015
'1:03.686',-0.295,0.015
'1:03.689',-0.290,0.005
'1:03.692',-0.260,0.005
'1:03.694',-0.250,0.020
'1:03.697',-0.255,0.035
'1:03.700',-0.255,0.010
'1:03.703',-0.260,-0.005
'1:03.706',-0.265,0.000
'1:03.708',-0.255,0.000
'1:03.711',-0.215,-0.005
'1:03.714',-0.175,0.005
'1:03.717',-0.165,0.010
'1:03.719',-0.170,-0.005
'1:03.722',-0.190,-0.010
'1:03.725',-0.210,0.000
'1:03.728',-0.210,0.010
'1:03.731',-0.190,0.000
'1:03.733',-0.185,-0.010
'1:03.736',-0.185,-0.010
'1:03.739',-0.200,0.000
'1:03.742',-0.200,0.005
'1:03.744',-0.185,0.015
'1:03.747',-0.165,-0.005
'1:03.750',-0.150,-0.010
'1:03.753',-0.150,-0.020
'1:03.756',-0.155,-0.010
'1:03.758',-0.135,0.000
'1:03.761',-0.115,0.020
'1:03.764',-0.120,0.005
'1:03.767',-0.110,-0.010
'1:03.769',-0.125,-0.020
'1:03.772',-0.105,-0.010
'1:03.775',-0.085,-0.005
'1:03.778',-0.075,-0.005
'1:03.781',-0.075,-0.005
'1:03.783',-0.085,0.005
'1:03.786',-0.100,0.010
'1:03.789',-0.095,0.000
'1:03.792',-0.065,-0.005
'1:03.794',-0.050,0.005
'1:03.797',-0.040,0.010
'1:03.800',-0.025,-0.010
'1:03.803',-0.025,-0.020
'1:03.806',-0.045,0.005
'1:03.808',-0.055,0.035
'1:03.811',-0.045,0.020
'1:03.814',-0.045,0.015
'1:03.817',-0.050,0.005
'1:03.819',-0.070,0.000
'1:03.822',-0.070,0.020
'1:03.825',-0.065,0.020
'1:03.828',-0.050,0.025
'1:03.831',-0.055,0.050
'1:03.833',-0.090,0.040
'1:03.836',-0.095,0.020
'1:03.839',-0.085,0.020
'1:03.842',-0.085,0.030
'1:03.844',-0.080,0.035
'1:03.847',-0.080,0.025
'1:03.850',-0.105,0.010
'1:03.853',-0.125,0.020
'1:03.856',-0.145,0.035
'1:03.858',-0.155,0.030
'1:03.861',-0.130,0.030
'1:03.864',-0.105,0.025
'1:03.867',-0.125,0.025
'1:03.869',-0.150,0.005
'1:03.872',-0.190,0.020
'1:03.875',-0.195,0.045
'1:03.878',-0.170,0.055
'1:03.881',-0.155,0.050
'1:03.883',-0.140,0.025
'1:03.886',-0.145,0.025
'1:03.889',-0.165,0.035
'1:03.892',-0.180,0.040
'1:03.894',-0.175,0.035
'1:03.897',-0.165,0.050
'1:03.900',-0.145,0.045
'1:03.903',-0.155,0.035
'1:03.906',-0.190,0.020
'1:03.908',-0.245,0.040
'1:03.911',-0.225,0.045
'1:03.914',-0.210,0.040
'1:03.917',-0.195,0.020
'1:03.919',-0.225,0.015
'1:03.922',-0.230,0.045
'1:03.925',-0.240,0.055
'1:03.928',-0.210,0.040
'1:03.931',-0.220,0.025
'1:03.933',-0.225,0.035
'1:03.936',-0.250,0.035
'1:03.939',-0.250,0.040
'1:03.942',-0.255,0.035
'1:03.944',-0.250,0.045
'1:03.947',-0.260,0.070
'1:03.950',-0.275,0.055
'1:03.953',-0.295,0.030
'1:03.956',-0.310,0.040
'1:03.958',-0.300,0.060
'1:03.961',-0.295,0.055
'1:03.964',-0.270,0.035
'1:03.967',-0.250,0.030
'1:03.969',-0.260,0.040
'1:03.972',-0.265,0.050
'1:03.975',-0.285,0.060
'1:03.978',-0.295,0.050
'1:03.981',-0.300,0.050
'1:03.983',-0.300,0.040
'1:03.986',-0.300,0.035
'1:03.989',-0.305,0.030
'1:03.992',-0.290,0.055
'1:03.994',-0.260,0.065
'1:03.997',-0.260,0.055
'1:04.000',-0.285,0.025
'1:04.003',-0.300,0.020
'1:04.006',-0.320,0.040
'1:04.008',-0.305,0.045
'1:04.011',-0.280,0.045
'1:04.014',-0.255,0.035
'1:04.017',-0.220,0.035
'1:04.019',-0.200,0.050
'1:04.022',-0.230,0.050
'1:04.025',-0.255,0.045
'1:04.028',-0.280,0.050
'1:04.031',-0.275,0.055
'1:04.033',-0.275,0.045
'1:04.036',-0.265,0.035
'1:04.039',-0.265,0.040
'1:04.042',-0.260,0.065
'1:04.044',-0.240,0.075
'1:04.047',-0.240,0.065
'1:04.050',-0.225,0.040
'1:04.053',-0.245,0.040
'1:04.056',-0.255,0.045
'1:04.058',-0.265,0.055
'1:04.061',-0.265,0.050
'1:04.064',-0.265,0.075
'1:04.067',-0.275,0.070
'1:04.069',-0.275,0.055
'1:04.072',-0.275,0.040
'1:04.075',-0.275,0.045
'1:04.078',-0.260,0.065
'1:04.081',-0.245,0.050
'1:04.083',-0.250,0.025
'1:04.086',-0.260,0.030
'1:04.089',-0.250,0.055
'1:04.092',-0.225,0.050
'1:04.094',-0.230,0.040
'1:04.097',-0.260,0.045
'1:04.100',-0.265,0.040
'1:04.103',-0.270,0.020
'1:04.106',-0.245,0.035
'1:04.108',-0.240,0.040
'1:04.111',-0.245,0.060
'1:04.114',-0.230,0.050
'1:04.117',-0.245,0.030
'1:04.119',-0.260,0.010
'1:04.122',-0.270,0.030
'1:04.125',-0.265,0.035
'1:04.128',-0.260,0.025
'1:04.131',-0.255,0.020
'1:04.133',-0.265,0.025
'1:04.136',-0.275,0.025
'1:04.139',-0.260,0.030
'1:04.142',-0.240,0.025
'1:04.144',-0.230,0.030
'1:04.147',-0.245,0.035
'1:04.150',-0.290,0.020
'1:04.153',-0.325,0.000
'1:04.156',-0.315,0.020
'1:04.158',-0.300,0.040
'1:04.161',-0.275,0.030
'1:04.164',-0.260,0.030
'1:04.167',-0.265,0.015
'1:04.169',-0.275,0.010
'1:04.172',-0.260,0.025
'1:04.175',-0.245,0.015
'1:04.178',-0.225,0.030
'1:04.181',-0.240,0.025
'1:04.183',-0.255,0.040
'1:04.186',-0.285,0.015
'1:04.189',-0.300,0.000
'1:04.192',-0.305,0.015
'1:04.194',-0.280,0.025
'1:04.197',-0.230,0.015
'1:04.200',-0.135,-0.015
'1:04.203',-0.055,-0.005
'1:04.206',0.055,0.025
'1:04.208',0.140,0.035
'1:04.211',0.245,0.020
'1:04.214',0.325,0.020
'1:04.217',0.425,0.010
'1:04.219',0.520,0.015
'1:04.222',0.630,0.010
'1:04.225',0.770,0.025
'1:04.228',0.895,0.035
'1:04.231',0.930,0.050
'1:04.233',0.860,0.030
'1:04.236',0.750,0.025
'1:04.239',0.610,0.045
'1:04.242',0.425,0.065
'1:04.244',0.170,0.080
'1:04.247',-0.140,0.075
'1:04.250',-0.395,0.075
'1:04.253',-0.530,0.100
'1:04.256',-0.575,0.115
'1:04.258',-0.580,0.115
'1:04.261',-0.555,0.105
'1:04.264',-0.510,0.110
'1:04.267',-0.465,0.115
'1:04.269',-0.440,0.085
'1:04.272',-0.440,0.070
'1:04.275',-0.415,0.090
'1:04.278',-0.380,0.115
'1:04.281',-0.375,0.120
'1:04.283',-0.390,0.080
'1:04.286',-0.425,0.075
'1:04.289',-0.440,0.090
'1:04.292',-0.435,0.085
'1:04.294',-0.390,0.075
'1:04.297',-0.385,0.055
'1:04.300',-0.370,0.050
'1:04.303',-0.370,0.065
'1:04.306',-0.355,0.055
'1:04.308',-0.360,0.055
'1:04.311',-0.350,0.055
'1:04.314',-0.355,0.065
'1:04.317',-0.355,0.050
'1:04.319',-0.340,0.025
'1:04.322',-0.345,0.040
'1:04.325',-0.345,0.065
'1:04.328',-0.340,0.065
'1:04.331',-0.350,0.045
'1:04.333',-0.345,0.020
'1:04.336',-0.345,0.035
'1:04.339',-0.350,0.050
'1:04.342',-0.365,0.040
'1:04.344',-0.360,0.030
'1:04.347',-0.365,0.030
'1:04.350',-0.360,0.030
'1:04.353',-0.380,0.035
'1:04.356',-0.380,0.030
'1:04.358',-0.365,0.035
'1:04.361',-0.350,0.050
'1:04.364',-0.330,0.050
'1:04.367',-0.320,0.025
'1:04.369',-0.335,0.015
'1:04.372',-0.340,0.030
'1:04.375',-0.340,0.060
'1:04.378',-0.320,0.055
'1:04.381',-0.310,0.050
'1:04.383',-0.315,0.035
'1:04.386',-0.320,0.050
'1:04.389',-0.315,0.045
'1:04.392',-0.310,0.030
'1:04.394',-0.300,0.025
'1:04.397',-0.275,0.040
'1:04.400',-0.260,0.030
'1:04.403',-0.240,0.015
'1:04.406',-0.235,0.010
'1:04.408',-0.265,0.025
'1:04.411',-0.275,0.045
'1:04.414',-0.285,0.025
'1:04.417',-0.255,0.000
'1:04.419',-0.220,0.000
'1:04.422',-0.215,0.005
'1:04.425',-0.245,0.020
'1:04.428',-0.260,0.010
'1:04.431',-0.260,0.010
'1:04.433',-0.230,0.015
'1:04.436',-0.230,0.010
'1:04.439',-0.230,0.005
'1:04.442',-0.230,0.010
'1:04.444',-0.215,0.010
'1:04.447',-0.210,0.025
'1:04.450',-0.240,0.005
'1:04.453',-0.275,-0.010
'1:04.456',-0.285,0.015
'1:04.458',-0.270,0.025
'1:04.461',-0.230,0.020
'1:04.464',-0.190,-0.005
'1:04.467',-0.145,-0.010
'1:04.469',-0.095,-0.005
'1:04.472',-0.065,0.010
'1:04.475',-0.060,0.005
'1:04.478',-0.050,0.005
'1:04.481',-0.050,0.000
'1:04.483',-0.065,-0.005
'1:04.486',-0.065,0.000
'1:04.489',-0.065,-0.020
'1:04.492',-0.055,0.000
'1:04.494',-0.060,0.010
'1:04.497',-0.085,0.020
'1:04.500',-0.095,0.010
'1:04.503',-0.110,0.000
'1:04.506',-0.105,0.010
'1:04.508',-0.075,0.035
'1:04.511',-0.060,0.020
'1:04.514',-0.080,0.010
'1:04.517',-0.095,-0.005
'1:04.519',-0.105,0.015
'1:04.522',-0.120,0.020
'1:04.525',-0.130,0.015
'1:04.528',-0.135,0.010
'1:04.531',-0.155,0.010
'1:04.533',-0.175,0.025
'1:04.536',-0.185,0.010
'1:04.539',-0.195,-0.005
'1:04.542',-0.180,0.000
'1:04.544',-0.195,0.030
'1:04.547',-0.205,0.030
'1:04.550',-0.245,0.000
'1:04.553',-0.250,-0.005
'1:04.556',-0.260,0.015
'1:04.558',-0.255,0.030
'1:04.561',-0.260,0.025
'1:04.564',-0.280,0.025
'1:04.567',-0.260,0.010
'1:04.569',-0.225,0.025
'1:04.572',-0.210,0.025
'1:04.575',-0.195,0.025
'1:04.578',-0.175,0.020
'1:04.581',-0.180,0.030
'1:04.583',-0.190,0.020
'1:04.586',-0.200,0.000
'1:04.589',-0.220,0.010
'1:04.592',-0.210,0.020
'1:04.594',-0.200,0.030
'1:04.597',-0.205,0.025
'1:04.600',-0.215,0.010
'1:04.603',-0.255,0.025
'1:04.606',-0.255,0.025
'1:04.608',-0.245,0.050
'1:04.611',-0.225,0.030
'1:04.614',-0.215,0.030
'1:04.617',-0.230,0.035
'1:04.619',-0.240,0.030
'1:04.622',-0.250,0.030
'1:04.625',-0.245,0.045
'1:04.628',-0.235,0.045
'1:04.631',-0.255,0.055
'1:04.633',-0.280,0.040
'1:04.636',-0.290,0.030
'1:04.639',-0.285,0.025
'1:04.642',-0.275,0.040
'1:04.644',-0.285,0.040
'1:04.647',-0.285,0.035
'1:04.650',-0.260,0.030
'1:04.653',-0.240,0.030
'1:04.656',-0.235,0.035
'1:04.658',-0.220,0.025
'1:04.661',-0.230,0.025
'1:04.664',-0.225,0.050
'1:04.667',-0.235,0.035
'1:04.669',-0.245,0.020
'1:04.672',-0.245,0.030
'1:04.675',-0.260,0.055
'1:04.678',-0.240,0.065
'1:04.681',-0.240,0.045
'1:04.683',-0.260,0.020
'1:04.686',-0.310,0.020
'1:04.689',-0.315,0.045
'1:04.692',-0.280,0.050
'1:04.694',-0.240,0.050
'1:04.697',-0.220,0.055
'1:04.700',-0.220,0.050
'1:04.703',-0.230,0.045
'1:04.706',-0.250,0.045
'1:04.708',-0.240,0.045
'1:04.711',-0.225,0.065
'1:04.714',-0.230,0.065
'1:04.717',-0.255,0.055
'1:04.719',-0.275,0.035
'1:04.722',-0.285,0.045
'1:04.725',-0.275,0.060
'1:04.728',-0.270,0.065
'1:04.731',-0.280,0.035
'1:04.733',-0.285,0.025
'1:04.736',-0.280,0.020
'1:04.739',-0.280,0.045
'1:04.742',-0.280,0.060
'1:04.744',-0.260,0.035
'1:04.747',-0.255,0.035
'1:04.750',-0.245,0.045
'1:04.753',-0.250,0.045
'1:04.756',-0.255,0.040
'1:04.758',-0.260,0.030
'1:04.761',-0.265,0.030
'1:04.764',-0.260,0.040
'1:04.767',-0.260,0.030
'1:04.769',-0.270,0.000
'1:04.772',-0.260,0.020
'1:04.775',-0.265,0.025
'1:04.778',-0.260,0.030
'1:04.781',-0.255,0.020
'1:04.783',-0.245,0.000
'1:04.786',-0.260,0.005
'1:04.789',-0.255,0.030
'1:04.792',-0.255,0.035
'1:04.794',-0.250,0.030
'1:04.797',-0.255,0.035
'1:04.800',-0.245,0.040
'1:04.803',-0.235,0.040
'1:04.806',-0.235,0.030
'1:04.808',-0.255,0.025
'1:04.811',-0.260,0.040
'1:04.814',-0.240,0.055
'1:04.817',-0.220,0.035
'1:04.819',-0.170,0.020
'1:04.822',-0.110,0.025
'1:04.825',-0.035,0.045
'1:04.828',0.075,0.055
'1:04.831',0.165,0.035
'1:04.833',0.270,0.020
'1:04.836',0.370,0.010
'1:04.839',0.460,0.035
'1:04.842',0.570,0.045
'1:04.844',0.675,0.030
'1:04.847',0.795,0.035
'1:04.850',0.905,0.035
'1:04.853',0.980,0.035
'1:04.856',1.060,0.045
'1:04.858',1.095,0.030
'1:04.861',1.080,0.030
'1:04.864',1.010,0.045
'1:04.867',0.840,0.050
'1:04.869',0.545,0.035
'1:04.872',0.140,0.045
'1:04.875',-0.200,0.085
'1:04.878',-0.385,0.120
'1:04.881',-0.480,0.095
'1:04.883',-0.540,0.075
'1:04.886',-0.575,0.075
'1:04.889',-0.555,0.090
'1:04.892',-0.485,0.110
'1:04.894',-0.400,0.095
'1:04.897',-0.350,0.080
'1:04.900',-0.340,0.085
'1:04.903',-0.340,0.085
'1:04.906',-0.350,0.095
'1:04.908',-0.330,0.085
'1:04.911',-0.335,0.070
'1:04.914',-0.350,0.090
'1:04.917',-0.370,0.070
'1:04.919',-0.380,0.060
'1:04.922',-0.360,0.055
'1:04.925',-0.330,0.075
'1:04.928',-0.305,0.085
'1:04.931',-0.290,0.075
'1:04.933',-0.300,0.055
'1:04.936',-0.310,0.025
'1:04.939',-0.295,0.040
'1:04.942',-0.295,0.060
'1:04.944',-0.270,0.065
'1:04.947',-0.250,0.050
'1:04.950',-0.260,0.040
'1:04.953',-0.285,0.040
'1:04.956',-0.300,0.050
'1:04.958',-0.290,0.045
'1:04.961',-0.275,0.035
'1:04.964',-0.245,0.045
'1:04.967',-0.255,0.055
'1:04.969',-0.270,0.040
'1:04.972',-0.285,0.035
'1:04.975',-0.265,0.045
'1:04.978',-0.275,0.060
'1:04.981',-0.270,0.055
'1:04.983',-0.285,0.050
'1:04.986',-0.265,0.035
'1:04.989',-0.265,0.045
'1:04.992',-0.245,0.065
'1:04.994',-0.230,0.070
'1:04.997',-0.240,0.055
'1:05.000',-0.245,0.050
'1:05.003',-0.260,0.060
'1:05.006',-0.265,0.070
'1:05.008',-0.270,0.065
'1:05.011',-0.270,0.050
'1:05.014',-0.250,0.060
'1:05.017',-0.240,0.075
'1:05.019',-0.225,0.055
'1:05.022',-0.230,0.045
'1:05.025',-0.240,0.060
'1:05.028',-0.265,0.070
'1:05.031',-0.260,0.085
'1:05.033',-0.245,0.055
'1:05.036',-0.210,0.040
'1:05.039',-0.170,0.055
'1:05.042',-0.145,0.075
'1:05.044',-0.150,0.085
'1:05.047',-0.165,0.065
'1:05.050',-0.180,0.055
'1:05.053',-0.185,0.050
'1:05.056',-0.160,0.050
'1:05.058',-0.140,0.055
'1:05.061',-0.135,0.045
'1:05.064',-0.135,0.060
'1:05.067',-0.125,0.040
'1:05.069',-0.105,0.045
'1:05.072',-0.095,0.045
'1:05.075',-0.090,0.060
'1:05.078',-0.120,0.060
'1:05.081',-0.115,0.050
'1:05.083',-0.110,0.030
'1:05.086',-0.100,0.040
'1:05.089',-0.075,0.030
'1:05.092',-0.055,0.040
'1:05.094',-0.025,0.050
'1:05.097',-0.025,0.045
'1:05.100',-0.025,0.050
'1:05.103',-0.015,0.045
'1:05.106',-0.020,0.040
'1:05.108',-0.010,0.045
'1:05.111',-0.005,0.060
'1:05.114',0.000,0.060
'1:05.117',-0.005,0.050
'1:05.119',0.005,0.060
'1:05.122',0.010,0.085
'1:05.125',0.010,0.085
'1:05.128',0.015,0.075
'1:05.131',0.010,0.060
'1:05.133',0.000,0.065
'1:05.136',-0.020,0.065
'1:05.139',-0.030,0.055
'1:05.142',-0.005,0.065
'1:05.144',0.010,0.085
'1:05.147',-0.010,0.095
'1:05.150',-0.035,0.060
'1:05.153',-0.050,0.060
'1:05.156',-0.050,0.070
'1:05.158',-0.045,0.080
'1:05.161',-0.045,0.085
'1:05.164',-0.045,0.075
'1:05.167',-0.045,0.090
'1:05.169',-0.050,0.070
'1:05.172',-0.045,0.075
'1:05.175',-0.040,0.075
'1:05.178',-0.035,0.100
'1:05.181',-0.040,0.090
'1:05.183',-0.050,0.065
'1:05.186',-0.080,0.055
'1:05.189',-0.070,0.085
'1:05.192',-0.055,0.090
'1:05.194',-0.035,0.100
'1:05.197',-0.040,0.065
'1:05.200',-0.045,0.060
'1:05.203',-0.050,0.070
'1:05.206',-0.065,0.075
'1:05.208',-0.080,0.070
'1:05.211',-0.080,0.080
'1:05.214',-0.085,0.100
'1:05.217',-0.065,0.085
'1:05.219',-0.080,0.065
'1:05.222',-0.110,0.070
'1:05.225',-0.110,0.080
'1:05.228',-0.090,0.080
'1:05.231',-0.095,0.075
'1:05.233',-0.100,0.065
'1:05.236',-0.120,0.075
'1:05.239',-0.135,0.090
'1:05.242',-0.145,0.085
'1:05.244',-0.150,0.070
'1:05.247',-0.170,0.080
'1:05.250',-0.160,0.075
'1:05.253',-0.165,0.060
'1:05.256',-0.140,0.065
'1:05.258',-0.155,0.090
'1:05.261',-0.150,0.105
'1:05.264',-0.150,0.085
'1:05.267',-0.155,0.070
'1:05.269',-0.140,0.075
'1:05.272',-0.145,0.080
'1:05.275',-0.150,0.080
'1:05.278',-0.145,0.070
'1:05.281',-0.145,0.095
'1:05.283',-0.125,0.100
'1:05.286',-0.140,0.075
'1:05.289',-0.140,0.070
'1:05.292',-0.140,0.095
'1:05.294',-0.130,0.090
'1:05.297',-0.155,0.080
'1:05.300',-0.160,0.065
'1:05.303',-0.155,0.075
'1:05.306',-0.130,0.085
'1:05.308',-0.135,0.080
'1:05.311',-0.125,0.065
'1:05.314',-0.130,0.080
'1:05.317',-0.130,0.075
'1:05.319',-0.130,0.055
'1:05.322',-0.165,0.035
'1:05.325',-0.165,0.080
'1:05.328',-0.150,0.085
'1:05.331',-0.135,0.070
'1:05.333',-0.135,0.055
'1:05.336',-0.115,0.050
'1:05.339',-0.115,0.065
'1:05.342',-0.110,0.075
'1:05.344',-0.090,0.065
'1:05.347',-0.095,0.060
'1:05.350',-0.115,0.065
'1:05.353',-0.130,0.045
'1:05.356',-0.140,0.040
'1:05.358',-0.150,0.045
'1:05.361',-0.145,0.055
'1:05.364',-0.145,0.045
'1:05.367',-0.150,0.030
'1:05.369',-0.135,0.025
'1:05.372',-0.125,0.065
'1:05.375',-0.110,0.065
'1:05.378',-0.100,0.045
'1:05.381',-0.095,0.050
'1:05.383',-0.090,0.045
'1:05.386',-0.090,0.040
'1:05.389',-0.085,0.030
'1:05.392',-0.050,0.055
'1:05.394',-0.025,0.080
'1:05.397',-0.010,0.070
'1:05.400',-0.020,0.040
'1:05.403',-0.015,0.030
'1:05.406',-0.025,0.060
'1:05.408',-0.035,0.050
'1:05.411',-0.060,0.050
'1:05.414',-0.060,0.045
'1:05.417',-0.045,0.055
'1:05.419',-0.040,0.045
'1:05.422',-0.040,0.045
'1:05.425',-0.025,0.055
'1:05.428',-0.030,0.055
'1:05.431',-0.055,0.050
'1:05.433',-0.080,0.025
'1:05.436',-0.075,0.035
'1:05.439',-0.040,0.070
'1:05.442',0.000,0.065
'1:05.444',0.005,0.040
'1:05.447',0.005,0.045
'1:05.450',-0.030,0.045
'1:05.453',-0.060,0.025
'1:05.456',-0.065,0.030
'1:05.458',-0.075,0.040
'1:05.461',-0.090,0.045
'1:05.464',-0.085,0.035
'1:05.467',-0.080,0.020
'1:05.469',-0.090,0.005
'1:05.472',-0.095,0.025
'1:05.475',-0.095,0.025
'1:05.478',-0.090,0.025
'1:05.481',-0.090,0.030
'1:05.483',-0.110,0.025
'1:05.486',-0.115,0.010
'1:05.489',-0.100,0.015
'1:05.492',-0.075,0.025
'1:05.494',-0.065,0.025
'1:05.497',-0.085,0.000
'1:05.500',-0.085,-0.005
'1:05.503',-0.095,0.015
'1:05.506',-0.080,0.020
'1:05.508',-0.075,0.015
'1:05.511',-0.070,0.010
'1:05.514',-0.090,0.030
'1:05.517',-0.095,0.020
'1:05.519',-0.125,-0.005
'1:05.522',-0.145,0.015
'1:05.525',-0.140,0.020
'1:05.528',-0.105,0.020
'1:05.531',-0.095,0.015
'1:05.533',-0.015,-0.005
'1:05.536',0.065,-0.005
'1:05.539',0.165,0.000
'1:05.542',0.270,0.005
'1:05.544',0.395,0.010
'1:05.547',0.485,0.025
'1:05.550',0.585,0.015
'1:05.553',0.695,0.010
'1:05.556',0.840,0.015
'1:05.558',1.010,0.035
'1:05.561',1.165,0.035
'1:05.564',1.240,0.030
'1:05.567',1.220,0.015
'1:05.569',1.115,0.030
'1:05.572',0.970,0.045
'1:05.575',0.755,0.045
'1:05.578',0.425,0.050
'1:05.581',0.060,0.090
'1:05.583',-0.175,0.075
'1:05.586',-0.300,0.060
'1:05.589',-0.300,0.075
'1:05.592',-0.270,0.095
'1:05.594',-0.225,0.105
'1:05.597',-0.180,0.085
'1:05.600',-0.150,0.075
'1:05.603',-0.140,0.070
'1:05.606',-0.160,0.085
'1:05.608',-0.190,0.080
'1:05.611',-0.200,0.075
'1:05.614',-0.210,0.080
'1:05.617',-0.240,0.070
'1:05.619',-0.245,0.045
'1:05.622',-0.250,0.055
'1:05.625',-0.275,0.065
'1:05.628',-0.270,0.060
'1:05.631',-0.295,0.035
'1:05.633',-0.310,0.010
'1:05.636',-0.265,0.020
'1:05.639',-0.225,0.030
'1:05.642',-0.215,0.030
'1:05.644',-0.225,0.035
'1:05.647',-0.225,0.040
'1:05.650',-0.205,0.035
'1:05.653',-0.175,0.025
'1:05.656',-0.160,0.030
'1:05.658',-0.150,0.060
'1:05.661',-0.155,0.070
'1:05.664',-0.160,0.065
'1:05.667',-0.160,0.050
'1:05.669',-0.160,0.045
'1:05.672',-0.165,0.040
'1:05.675',-0.175,0.035
'1:05.678',-0.165,0.030
'1:05.681',-0.155,0.050
'1:05.683',-0.145,0.055
'1:05.686',-0.160,0.035
'1:05.689',-0.165,0.035
'1:05.692',-0.160,0.055
'1:05.694',-0.145,0.055
'1:05.697',-0.170,0.050
'1:05.700',-0.165,0.020
'1:05.703',-0.165,0.025
'1:05.706',-0.165,0.050
'1:05.708',-0.160,0.050
'1:05.711',-0.155,0.040
'1:05.714',-0.150,0.035
'1:05.717',-0.140,0.040
'1:05.719',-0.145,0.040
'1:05.722',-0.145,0.025
'1:05.725',-0.155,0.025
'1:05.728',-0.140,0.045
'1:05.731',-0.125,0.055
'1:05.733',-0.120,0.035
'1:05.736',-0.135,0.025
'1:05.739',-0.125,0.040
'1:05.742',-0.110,0.050
'1:05.744',-0.110,0.040
'1:05.747',-0.105,0.045
'1:05.750',-0.095,0.030
'1:05.753',-0.100,0.035
'1:05.756',-0.090,0.035
'1:05.758',-0.090,0.035
'1:05.761',-0.080,0.035
'1:05.764',-0.075,0.055
'1:05.767',-0.085,0.040
'1:05.769',-0.095,0.020
'1:05.772',-0.065,0.015
'1:05.775',-0.055,0.050
'1:05.778',-0.030,0.070
'1:05.781',-0.015,0.050
'1:05.783',-0.020,0.030
'1:05.786',-0.020,0.030
'1:05.789',-0.025,0.055
'1:05.792',-0.030,0.050
'1:05.794',-0.025,0.045
'1:05.797',-0.005,0.050
'1:05.800',0.010,0.070
'1:05.803',0.020,0.045
'1:05.806',0.015,0.050
'1:05.808',0.010,0.055
'1:05.811',0.045,0.075
'1:05.814',0.055,0.065
'1:05.817',0.045,0.045
'1:05.819',0.025,0.030
'1:05.822',0.015,0.045
'1:05.825',0.015,0.085
'1:05.828',0.025,0.065
'1:05.831',0.020,0.055
'1:05.833',0.035,0.060
'1:05.836',0.035,0.070
'1:05.839',0.030,0.075
'1:05.842',0.025,0.060
'1:05.844',0.025,0.060
'1:05.847',0.010,0.080
'1:05.850',0.015,0.085
'1:05.853',-0.005,0.065
'1:05.856',-0.015,0.070
'1:05.858',-0.015,0.075
'1:05.861',0.005,0.090
'1:05.864',-0.005,0.070
'1:05.867',-0.020,0.055
'1:05.869',-0.005,0.060
'1:05.872',-0.005,0.080
'1:05.875',-0.005,0.085
'1:05.878',-0.020,0.065
'1:05.881',-0.040,0.060
'1:05.883',-0.060,0.070
'1:05.886',-0.070,0.065
'1:05.889',-0.070,0.040
'1:05.892',-0.070,0.055
'1:05.894',-0.055,0.070
'1:05.897',-0.060,0.080
'1:05.900',-0.070,0.065
'1:05.903',-0.080,0.045
'1:05.906',-0.080,0.050
'1:05.908',-0.085,0.070
'1:05.911',-0.085,0.065
'1:05.914',-0.095,0.050
'1:05.917',-0.105,0.035
'1:05.919',-0.105,0.040
'1:05.922',-0.100,0.045
'1:05.925',-0.105,0.045
'1:05.928',-0.120,0.050
'1:05.931',-0.145,0.060
'1:05.933',-0.145,0.040
'1:05.936',-0.130,0.030
'1:05.939',-0.110,0.030
'1:05.942',-0.110,0.045
'1:05.944',-0.115,0.055
'1:05.947',-0.105,0.050
'1:05.950',-0.090,0.025
'1:05.953',-0.075,0.035
'1:05.956',-0.080,0.040
'1:05.958',-0.085,0.045
'1:05.961',-0.100,0.030
'1:05.964',-0.120,0.025
'1:05.967',-0.125,0.020
'1:05.969',-0.135,0.010
'1:05.972',-0.150,0.025
'1:05.975',-0.170,0.025
'1:05.978',-0.175,0.030
'1:05.981',-0.190,0.035
'1:05.983',-0.190,0.000
'1:05.986',-0.190,0.000
'1:05.989',-0.180,0.005
'1:05.992',-0.175,0.030
'1:05.994',-0.175,0.025
'1:05.997',-0.185,0.020
'1:06.000',-0.185,0.015
'1:06.003',-0.215,0.005
'1:06.006',-0.205,0.010
'1:06.008',-0.215,0.010
'1:06.011',-0.195,0.030
'1:06.014',-0.190,0.030
'1:06.017',-0.200,0.015
'1:06.019',-0.220,0.010
'1:06.022',-0.225,0.015
'1:06.025',-0.210,0.035
'1:06.028',-0.190,0.035
'1:06.031',-0.195,0.010
'1:06.033',-0.225,0.010
'1:06.036',-0.255,0.015
'1:06.039',-0.245,0.025
'1:06.042',-0.225,0.025
'1:06.044',-0.200,0.025
'1:06.047',-0.220,0.030
'1:06.050',-0.225,0.030
'1:06.053',-0.220,0.010
'1:06.056',-0.195,0.025
'1:06.058',-0.180,0.025
'1:06.061',-0.165,0.040
'1:06.064',-0.165,0.040
'1:06.067',-0.155,0.015
'1:06.069',-0.135,0.030
'1:06.072',-0.130,0.045
'1:06.075',-0.140,0.040
'1:06.078',-0.160,0.030
'1:06.081',-0.155,0.025
'1:06.083',-0.145,0.045
'1:06.086',-0.140,0.040
'1:06.089',-0.130,0.045
'1:06.092',-0.110,0.050
'1:06.094',-0.105,0.075
'1:06.097',-0.130,0.065
'1:06.100',-0.150,0.040
'1:06.103',-0.160,0.035
'1:06.106',-0.160,0.055
'1:06.108',-0.165,0.065
'1:06.111',-0.170,0.065
'1:06.114',-0.175,0.060
'1:06.117',-0.170,0.050
'1:06.119',-0.175,0.055
'1:06.122',-0.180,0.050
'1:06.125',-0.170,0.060
'1:06.128',-0.160,0.055
'1:06.131',-0.155,0.075
'1:06.133',-0.150,0.060
'1:06.136',-0.155,0.045
'1:06.139',-0.165,0.065
'1:06.142',-0.180,0.090
'1:06.144',-0.175,0.070
'1:06.147',-0.190,0.035
'1:06.150',-0.180,0.045
'1:06.153',-0.180,0.065
'1:06.156',-0.175,0.060
'1:06.158',-0.170,0.045
'1:06.161',-0.165,0.060
'1:06.164',-0.160,0.075
'1:06.167',-0.140,0.070
'1:06.169',-0.160,0.045
'1:06.172',-0.170,0.035
'1:06.175',-0.190,0.060
'1:06.178',-0.190,0.065
'1:06.181',-0.175,0.050
'1:06.183',-0.160,0.050
'1:06.186',-0.170,0.035
'1:06.189',-0.180,0.045
'1:06.192',-0.170,0.045
'1:06.194',-0.155,0.040
'1:06.197',-0.150,0.045
'1:06.200',-0.155,0.050
'1:06.203',-0.155,0.030
'1:06.206',-0.165,0.030
'1:06.208',-0.155,0.055
'1:06.211',-0.155,0.055
'1:06.214',-0.170,0.035
'1:06.217',-0.175,0.020
'1:06.219',-0.180,0.035
'1:06.222',-0.180,0.040
'1:06.225',-0.170,0.040
'1:06.228',-0.165,0.025
'1:06.231',-0.175,0.030
'1:06.233',-0.200,0.035
'1:06.236',-0.225,0.015
'1:06.239',-0.225,-0.005
'1:06.242',-0.165,0.010
'1:06.244',-0.060,0.020
'1:06.247',0.025,0.015
'1:06.250',0.105,0.000
'1:06.253',0.205,0.010
'1:06.256',0.310,0.015
'1:06.258',0.420,0.015
'1:06.261',0.540,0.010
'1:06.264',0.680,0.040
'1:06.267',0.830,0.040
'1:06.269',0.920,0.020
'1:06.272',0.970,0.030
'1:06.275',0.950,0.060
'1:06.278',0.870,0.065
'1:06.281',0.725,0.060
'1:06.283',0.510,0.050
'1:06.286',0.190,0.070
'1:06.289',-0.135,0.100
'1:06.292',-0.345,0.115
'1:06.294',-0.450,0.115
'1:06.297',-0.470,0.135
'1:06.300',-0.460,0.115
'1:06.303',-0.415,0.095
'1:06.306',-0.370,0.100
'1:06.308',-0.340,0.115
'1:06.311',-0.280,0.110
'1:06.314',-0.235,0.095
'1:06.317',-0.225,0.090
'1:06.319',-0.265,0.105
'1:06.322',-0.290,0.090
'1:06.325',-0.315,0.070
'1:06.328',-0.315,0.080
'1:06.331',-0.335,0.070
'1:06.333',-0.350,0.050
'1:06.336',-0.370,0.025
'1:06.339',-0.350,0.050
'1:06.342',-0.320,0.060
'1:06.344',-0.280,0.055
'1:06.347',-0.270,0.025
'1:06.350',-0.285,0.025
'1:06.353',-0.300,0.035
'1:06.356',-0.315,0.035
'1:06.358',-0.300,0.035
'1:06.361',-0.285,0.035
'1:06.364',-0.270,0.050
'1:06.367',-0.265,0.035
'1:06.369',-0.280,0.020
'1:06.372',-0.295,0.035
'1:06.375',-0.285,0.035
'1:06.378',-0.270,0.030
'1:06.381',-0.270,0.035
'1:06.383',-0.280,0.030
'1:06.386',-0.295,0.010
'1:06.389',-0.310,0.015
'1:06.392',-0.305,0.020
'1:06.394',-0.295,0.040
'1:06.397',-0.310,0.020
'1:06.400',-0.330,0.015
'1:06.403',-0.300,0.020
'1:06.406',-0.270,0.030
'1:06.408',-0.245,0.035
'1:06.411',-0.250,0.035
'1:06.414',-0.260,0.025
'1:06.417',-0.270,0.010
'1:06.419',-0.265,0.010
'1:06.422',-0.245,0.020
'1:06.425',-0.215,0.035
'1:06.428',-0.205,0.025
'1:06.431',-0.210,0.010
'1:06.433',-0.195,0.015
'1:06.436',-0.190,0.005
'1:06.439',-0.185,0.010
'1:06.442',-0.175,0.025
'1:06.444',-0.180,0.040
'1:06.447',-0.180,0.015
'1:06.450',-0.180,-0.010
'1:06.453',-0.190,-0.005
'1:06.456',-0.195,0.005
'1:06.458',-0.160,0.010
'1:06.461',-0.125,0.005
'1:06.464',-0.125,0.015
'1:06.467',-0.150,0.020
'1:06.469',-0.170,0.000
'1:06.472',-0.160,0.010
'1:06.475',-0.140,0.020
'1:06.478',-0.100,0.020
'1:06.481',-0.065,0.015
'1:06.483',-0.040,0.020
'1:06.486',-0.050,0.020
'1:06.489',-0.060,0.005
'1:06.492',-0.080,0.010
'1:06.494',-0.080,0.015
'1:06.497',-0.090,0.020
'1:06.500',-0.075,0.005
'1:06.503',-0.075,0.000
'1:06.506',-0.075,0.030
'1:06.508',-0.075,0.040
'1:06.511',-0.085,0.025
'1:06.514',-0.080,0.010
'1:06.517',-0.085,-0.005
'1:06.519',-0.100,0.000
'1:06.522',-0.110,0.030
'1:06.525',-0.095,0.060
'1:06.528',-0.085,0.030
'1:06.531',-0.080,0.030
'1:06.533',-0.105,0.040
'1:06.536',-0.130,0.025
'1:06.539',-0.155,0.020
'1:06.542',-0.165,0.045
'1:06.544',-0.155,0.070
'1:06.547',-0.150,0.055
'1:06.550',-0.135,0.025
'1:06.553',-0.155,0.015
'1:06.556',-0.175,0.040
'1:06.558',-0.185,0.035
'1:06.561',-0.170,0.025
'1:06.564',-0.165,0.045
'1:06.567',-0.170,0.050
'1:06.569',-0.190,0.040
'1:06.572',-0.195,0.030
'1:06.575',-0.190,0.045
'1:06.578',-0.170,0.050
'1:06.581',-0.180,0.035
'1:06.583',-0.175,0.035
'1:06.586',-0.185,0.050
'1:06.589',-0.195,0.050
'1:06.592',-0.190,0.040
'1:06.594',-0.185,0.045
'1:06.597',-0.210,0.055
'1:06.600',-0.250,0.045
'1:06.603',-0.255,0.025
'1:06.606',-0.220,0.045
'1:06.608',-0.180,0.060
'1:06.611',-0.165,0.070
'1:06.614',-0.200,0.050
'1:06.617',-0.210,0.050
'1:06.619',-0.225,0.055
'1:06.622',-0.230,0.050
'1:06.625',-0.225,0.050
'1:06.628',-0.230,0.060
'1:06.631',-0.225,0.070
'1:06.633',-0.230,0.040
'1:06.636',-0.240,0.030
'1:06.639',-0.240,0.050
'1:06.642',-0.245,0.065
'1:06.644',-0.225,0.055
'1:06.647',-0.230,0.055
'1:06.650',-0.250,0.060
'1:06.653',-0.280,0.060
'1:06.656',-0.295,0.055
'1:06.658',-0.290,0.040
'1:06.661',-0.275,0.045
'1:06.664',-0.230,0.055
'1:06.667',-0.230,0.045
'1:06.669',-0.265,0.020
'1:06.672',-0.260,0.035
'1:06.675',-0.250,0.060
'1:06.678',-0.250,0.070
'1:06.681',-0.230,0.040
'1:06.683',-0.215,0.030
'1:06.686',-0.215,0.035
'1:06.689',-0.230,0.045
'1:06.692',-0.240,0.035
'1:06.694',-0.220,0.050
'1:06.697',-0.225,0.060
'1:06.700',-0.210,0.045
'1:06.703',-0.210,0.035
'1:06.706',-0.215,0.025
'1:06.708',-0.215,0.055
'1:06.711',-0.205,0.055
'1:06.714',-0.200,0.040
'1:06.717',-0.215,0.030
'1:06.719',-0.200,0.040
'1:06.722',-0.210,0.050
'1:06.725',-0.190,0.055
'1:06.728',-0.170,0.030
'1:06.731',-0.180,0.050
'1:06.733',-0.175,0.045
'1:06.736',-0.190,0.025
'1:06.739',-0.195,0.035
'1:06.742',-0.190,0.045
'1:06.744',-0.150,0.060
'1:06.747',-0.160,0.045
'1:06.750',-0.160,0.030
'1:06.753',-0.190,0.030
'1:06.756',-0.205,0.040
'1:06.758',-0.185,0.040
'1:06.761',-0.135,0.035
'1:06.764',-0.130,0.035
'1:06.767',-0.135,0.035
'1:06.769',-0.160,0.030
'1:06.772',-0.165,0.035
'1:06.775',-0.175,0.035
'1:06.778',-0.170,0.025
'1:06.781',-0.195,0.040
'1:06.783',-0.200,0.005
'1:06.786',-0.195,0.000
'1:06.789',-0.205,0.015
'1:06.792',-0.210,0.035
'1:06.794',-0.205,0.035
'1:06.797',-0.200,0.020
'1:06.800',-0.190,0.010
'1:06.803',-0.200,0.015
'1:06.806',-0.205,0.035
'1:06.808',-0.205,0.025
'1:06.811',-0.180,0.020
'1:06.814',-0.160,0.030
'1:06.817',-0.140,0.035
'1:06.819',-0.150,0.020
'1:06.822',-0.140,0.020
'1:06.825',-0.155,0.030
'1:06.828',-0.150,0.030
'1:06.831',-0.160,0.035
'1:06.833',-0.180,0.005
'1:06.836',-0.200,0.005
'1:06.839',-0.210,0.025
'1:06.842',-0.210,0.045
'1:06.844',-0.200,0.040
'1:06.847',-0.195,0.030
'1:06.850',-0.210,0.025
'1:06.853',-0.225,0.025
'1:06.856',-0.245,0.025
'1:06.858',-0.235,0.025
'1:06.861',-0.200,0.025
'1:06.864',-0.175,0.040
'1:06.867',-0.170,0.040
'1:06.869',-0.170,0.015
'1:06.872',-0.180,0.020
'1:06.875',-0.185,0.040
'1:06.878',-0.185,0.050
'1:06.881',-0.185,0.035
'1:06.883',-0.195,0.010
'1:06.886',-0.175,0.005
'1:06.889',-0.165,0.030
'1:06.892',-0.160,0.045
'1:06.894',-0.155,0.030
'1:06.897',-0.175,0.030
'1:06.900',-0.190,0.030
'1:06.903',-0.185,0.020
'1:06.906',-0.140,0.005
'1:06.908',-0.070,0.015
'1:06.911',0.035,0.015
'1:06.914',0.150,0.025
'1:06.917',0.235,0.010
'1:06.919',0.335,0.005
'1:06.922',0.415,0.005
'1:06.925',0.505,0.020
'1:06.928',0.620,0.030
'1:06.931',0.765,0.030
'1:06.933',0.910,0.020
'1:06.936',1.030,0.045
'1:06.939',1.140,0.045
'1:06.942',1.165,0.050
'1:06.944',1.125,0.035
'1:06.947',1.030,0.060
'1:06.950',0.840,0.050
'1:06.953',0.470,0.045
'1:06.956',0.040,0.060
'1:06.958',-0.270,0.095
'1:06.961',-0.385,0.110
'1:06.964',-0.445,0.110
'1:06.967',-0.470,0.095
'1:06.969',-0.470,0.090
'1:06.972',-0.415,0.100
'1:06.975',-0.370,0.100
'1:06.978',-0.335,0.090
'1:06.981',-0.335,0.080
'1:06.983',-0.320,0.075
'1:06.986',-0.305,0.075
'1:06.989',-0.300,0.075
'1:06.992',-0.290,0.070
'1:06.994',-0.300,0.065
'1:06.997',-0.325,0.075
'1:07.000',-0.335,0.045
'1:07.003',-0.350,0.025
'1:07.006',-0.340,0.025
'1:07.008',-0.330,0.050
'1:07.011',-0.300,0.055
'1:07.014',-0.280,0.040
'1:07.017',-0.255,0.025
'1:07.019',-0.240,0.030
'1:07.022',-0.240,0.040
'1:07.025',-0.215,0.035
'1:07.028',-0.200,0.030
'1:07.031',-0.210,0.050
'1:07.033',-0.215,0.050
'1:07.036',-0.235,0.035
'1:07.039',-0.235,0.020
'1:07.042',-0.235,0.050
'1:07.044',-0.220,0.055
'1:07.047',-0.225,0.040
'1:07.050',-0.230,0.015
'1:07.053',-0.230,0.020
'1:07.056',-0.240,0.040
'1:07.058',-0.240,0.050
'1:07.061',-0.225,0.035
'1:07.064',-0.220,0.020
'1:07.067',-0.215,0.015
'1:07.069',-0.230,0.025
'1:07.072',-0.245,0.005
'1:07.075',-0.240,0.025
'1:07.078',-0.210,0.055
'1:07.081',-0.195,0.055
'1:07.083',-0.190,0.030
'1:07.086',-0.215,0.020
'1:07.089',-0.230,0.040
'1:07.092',-0.200,0.040
'1:07.094',-0.170,0.030
'1:07.097',-0.165,0.025
'1:07.100',-0.165,0.035
'1:07.103',-0.165,0.045
'1:07.106',-0.175,0.030
'1:07.108',-0.170,0.025
'1:07.111',-0.140,0.045
'1:07.114',-0.135,0.065
'1:07.117',-0.130,0.025
'1:07.119',-0.145,0.010
'1:07.122',-0.140,0.030
'1:07.125',-0.120,0.050
'1:07.128',-0.115,0.035
'1:07.131',-0.105,0.025
'1:07.133',-0.115,0.015
'1:07.136',-0.140,0.015
'1:07.139',-0.125,0.020
'1:07.142',-0.095,0.025
'1:07.144',-0.060,0.035
'1:07.147',-0.065,0.050
'1:07.150',-0.050,0.030
'1:07.153',-0.060,0.015
'1:07.156',-0.065,0.035
'1:07.158',-0.065,0.040
'1:07.161',-0.045,0.025
'1:07.164',-0.045,0.015
'1:07.167',-0.055,0.035
'1:07.169',-0.040,0.030
'1:07.172',-0.035,0.020
'1:07.175',0.005,0.015
'1:07.178',0.015,0.035
'1:07.181',0.025,0.045
'1:07.183',0.015,0.020
'1:07.186',0.005,0.000
'1:07.189',0.005,0.035
'1:07.192',0.015,0.050
'1:07.194',0.010,0.055
'1:07.197',0.005,0.025
'1:07.200',0.000,0.040
'1:07.203',-0.035,0.040
'1:07.206',-0.025,0.035
'1:07.208',-0.005,0.040
'1:07.211',0.020,0.060
'1:07.214',0.025,0.060
'1:07.217',0.020,0.030
'1:07.219',0.015,0.030
'1:07.222',0.010,0.050
'1:07.225',0.005,0.065
'1:07.228',0.000,0.045
'1:07.231',-0.025,0.045
'1:07.233',-0.035,0.030
'1:07.236',-0.040,0.045
'1:07.239',-0.045,0.055
'1:07.242',-0.055,0.040
'1:07.244',-0.060,0.055
'1:07.247',-0.060,0.065
'1:07.250',-0.060,0.040
'1:07.253',-0.070,0.025
'1:07.256',-0.090,0.040
'1:07.258',-0.080,0.045
'1:07.261',-0.075,0.055
'1:07.264',-0.090,0.045
'1:07.267',-0.105,0.040
'1:07.269',-0.115,0.035
'1:07.272',-0.100,0.030
'1:07.275',-0.065,0.035
'1:07.278',-0.065,0.050
'1:07.281',-0.065,0.045
'1:07.283',-0.090,0.025
'1:07.286',-0.060,0.030
'1:07.289',-0.055,0.055
'1:07.292',-0.075,0.045
'1:07.294',-0.075,0.040
'1:07.297',-0.085,0.030
'1:07.300',-0.090,0.040
'1:07.303',-0.100,0.040
'1:07.306',-0.120,0.030
'1:07.308',-0.100,0.025
'1:07.311',-0.090,0.045
'1:07.314',-0.100,0.050
'1:07.317',-0.115,0.020
'1:07.319',-0.115,0.030
'1:07.322',-0.115,0.050
'1:07.325',-0.090,0.055
'1:07.328',-0.085,0.050
'1:07.331',-0.110,0.050
'1:07.333',-0.120,0.045
'1:07.336',-0.150,0.035
'1:07.339',-0.160,0.030
'1:07.342',-0.140,0.035
'1:07.344',-0.135,0.055
'1:07.347',-0.145,0.050
'1:07.350',-0.180,0.030
'1:07.353',-0.200,0.025
'1:07.356',-0.180,0.050
'1:07.358',-0.150,0.060
'1:07.361',-0.125,0.040
'1:07.364',-0.140,0.030
'1:07.367',-0.145,0.045
'1:07.369',-0.170,0.030
'1:07.372',-0.175,0.040
'1:07.375',-0.195,0.045
'1:07.378',-0.180,0.050
'1:07.381',-0.165,0.050
'1:07.383',-0.145,0.045
'1:07.386',-0.130,0.020
'1:07.389',-0.125,0.020
'1:07.392',-0.120,0.060
'1:07.394',-0.085,0.060
'1:07.397',-0.050,0.055
'1:07.400',-0.045,0.040
'1:07.403',-0.060,0.055
'1:07.406',-0.065,0.055
'1:07.408',-0.065,0.075
'1:07.411',-0.045,0.045
'1:07.414',-0.040,0.050
'1:07.417',-0.035,0.065
'1:07.419',-0.040,0.055
'1:07.422',-0.050,0.050
'1:07.425',-0.065,0.060
'1:07.428',-0.065,0.075
'1:07.431',-0.100,0.080
'1:07.433',-0.105,0.050
'1:07.436',-0.115,0.030
'1:07.439',-0.110,0.035
'1:07.442',-0.100,0.060
'1:07.444',-0.085,0.055
'1:07.447',-0.095,0.050
'1:07.450',-0.100,0.040
'1:07.453',-0.115,0.055
'1:07.456',-0.100,0.060
'1:07.458',-0.090,0.050
'1:07.461',-0.070,0.050
'1:07.464',-0.085,0.055
'1:07.467',-0.095,0.060
'1:07.469',-0.095,0.035
'1:07.472',-0.090,0.040
'1:07.475',-0.080,0.065
'1:07.478',-0.045,0.075
'1:07.481',-0.035,0.065
'1:07.483',-0.060,0.035
'1:07.486',-0.075,0.030
'1:07.489',-0.080,0.045
'1:07.492',-0.070,0.070
'1:07.494',-0.050,0.065
'1:07.497',-0.065,0.050
'1:07.500',-0.070,0.055
'1:07.503',-0.100,0.060
'1:07.506',-0.110,0.065
'1:07.508',-0.125,0.060
'1:07.511',-0.120,0.050
'1:07.514',-0.125,0.055
'1:07.517',-0.120,0.060
'1:07.519',-0.120,0.045
'1:07.522',-0.125,0.040
'1:07.525',-0.110,0.065
'1:07.528',-0.100,0.070
'1:07.531',-0.105,0.075
'1:07.533',-0.125,0.045
'1:07.536',-0.140,0.040
'1:07.539',-0.145,0.060
'1:07.542',-0.125,0.085
'1:07.544',-0.085,0.065
'1:07.547',-0.070,0.060
'1:07.550',-0.075,0.055
'1:07.553',-0.070,0.055
'1:07.556',-0.080,0.080
'1:07.558',-0.085,0.060
'1:07.561',-0.085,0.045
'1:07.564',-0.100,0.045
'1:07.567',-0.110,0.065
'1:07.569',-0.125,0.045
'1:07.572',-0.125,0.045
'1:07.575',-0.095,0.055
'1:07.578',-0.035,0.055
'1:07.581',0.040,0.065
'1:07.583',0.110,0.035
'1:07.586',0.175,0.010
'1:07.589',0.265,0.035
'1:07.592',0.355,0.060
'1:07.594',0.455,0.055
'1:07.597',0.525,0.045
'1:07.600',0.615,0.025
'1:07.603',0.725,0.040
'1:07.606',0.855,0.060
'1:07.608',0.990,0.060
'1:07.611',1.120,0.055
'1:07.614',1.210,0.045
'1:07.617',1.245,0.070
'1:07.619',1.200,0.060
'1:07.622',1.120,0.055
'1:07.625',0.980,0.055
'1:07.628',0.745,0.070
'1:07.631',0.410,0.095
'1:07.633',0.075,0.095
'1:07.636',-0.120,0.085
'1:07.639',-0.215,0.095
'1:07.642',-0.290,0.110
'1:07.644',-0.330,0.135
'1:07.647',-0.320,0.120
'1:07.650',-0.290,0.100
'1:07.653',-0.250,0.105
'1:07.656',-0.180,0.115
'1:07.658',-0.160,0.115
'1:07.661',-0.145,0.105
'1:07.664',-0.150,0.105
'1:07.667',-0.175,0.090
'1:07.669',-0.185,0.095
'1:07.672',-0.205,0.090
'1:07.675',-0.220,0.080
'1:07.678',-0.215,0.080
'1:07.681',-0.220,0.085
'1:07.683',-0.225,0.075
'1:07.686',-0.230,0.060
'1:07.689',-0.245,0.040
'1:07.692',-0.235,0.040
'1:07.694',-0.230,0.060
'1:07.697',-0.215,0.070
'1:07.700',-0.195,0.040
'1:07.703',-0.195,0.020
'1:07.706',-0.195,0.030
'1:07.708',-0.180,0.050
'1:07.711',-0.190,0.055
'1:07.714',-0.195,0.045
'1:07.717',-0.200,0.030
'1:07.719',-0.210,0.040
'1:07.722',-0.215,0.045
'1:07.725',-0.205,0.050
'1:07.728',-0.205,0.045
'1:07.731',-0.195,0.050
'1:07.733',-0.190,0.050
'1:07.736',-0.195,0.040
'1:07.739',-0.205,0.045
'1:07.742',-0.195,0.035
'1:07.744',-0.170,0.050
'1:07.747',-0.150,0.055
'1:07.750',-0.135,0.050
'1:07.753',-0.150,0.030
'1:07.756',-0.160,0.035
'1:07.758',-0.170,0.050
'1:07.761',-0.165,0.070
'1:07.764',-0.165,0.060
'1:07.767',-0.165,0.025
'1:07.769',-0.180,0.015
'1:07.772',-0.175,0.045
'1:07.775',-0.165,0.065
'1:07.778',-0.155,0.055
'1:07.781',-0.160,0.045
'1:07.783',-0.155,0.040
'1:07.786',-0.155,0.040
'1:07.789',-0.130,0.060
'1:07.792',-0.130,0.040
'1:07.794',-0.130,0.035
'1:07.797',-0.130,0.040
'1:07.800',-0.125,0.045
'1:07.803',-0.115,0.030
'1:07.806',-0.105,0.035
'1:07.808',-0.105,0.040
'1:07.811',-0.090,0.050
'1:07.814',-0.080,0.045
'1:07.817',-0.075,0.025
'1:07.819',-0.080,0.015
'1:07.822',-0.065,0.030
'1:07.825',-0.050,0.045
'1:07.828',-0.050,0.035
'1:07.831',-0.055,0.035
'1:07.833',-0.065,0.025
'1:07.836',-0.060,0.035
'1:07.839',-0.040,0.030
'1:07.842',-0.045,0.030
'1:07.844',-0.025,0.030
'1:07.847',-0.035,0.020
'1:07.850',-0.040,0.025
'1:07.853',-0.035,0.015
'1:07.856',-0.030,0.015
'1:07.858',-0.025,0.030
'1:07.861',0.000,0.040
'1:07.864',-0.005,0.040
'1:07.867',0.000,0.030
'1:07.869',0.000,0.015
'1:07.872',-0.005,0.035
'1:07.875',0.015,0.030
'1:07.878',0.030,0.040
'1:07.881',0.025,0.045
'1:07.883',0.030,0.015
'1:07.886',0.020,0.025
'1:07.889',0.020,0.035
'1:07.892',0.020,0.040
'1:07.894',0.040,0.025
'1:07.897',0.055,0.035
'1:07.900',0.060,0.030
'1:07.903',0.040,0.040
'1:07.906',0.025,0.030
'1:07.908',0.035,0.035
'1:07.911',0.045,0.050
'1:07.914',0.050,0.065
'1:07.917',0.040,0.050
'1:07.919',0.035,0.030
'1:07.922',0.025,0.040
'1:07.925',0.020,0.055
'1:07.928',0.035,0.060
'1:07.931',0.030,0.055
'1:07.933',0.010,0.045
'1:07.936',0.005,0.045
'1:07.939',-0.010,0.055
'1:07.942',-0.020,0.050
'1:07.944',-0.025,0.045
'1:07.947',-0.030,0.035
'1:07.950',-0.025,0.050
'1:07.953',-0.020,0.035
'1:07.956',-0.010,0.025
'1:07.958',0.000,0.035
'1:07.961',-0.015,0.055
'1:07.964',-0.020,0.065
'1:07.967',-0.030,0.035
'1:07.969',-0.040,0.025
'1:07.972',-0.045,0.040
'1:07.975',-0.040,0.050
'1:07.978',-0.035,0.040
'1:07.981',-0.050,0.055
'1:07.983',-0.050,0.035
'1:07.986',-0.060,0.045
'1:07.989',-0.070,0.065
'1:07.992',-0.065,0.060
'1:07.994',-0.060,0.040
'1:07.997',-0.070,0.045
'1:08.000',-0.075,0.045
'1:08.003',-0.080,0.045
'1:08.006',-0.090,0.040
'1:08.008',-0.085,0.050
'1:08.011',-0.080,0.065
'1:08.014',-0.080,0.085
'1:08.017',-0.080,0.055
'1:08.019',-0.080,0.040
'1:08.022',-0.085,0.055
'1:08.025',-0.090,0.065
'1:08.028',-0.085,0.065
'1:08.031',-0.115,0.055
'1:08.033',-0.110,0.045
'1:08.036',-0.115,0.060
'1:08.039',-0.115,0.070
'1:08.042',-0.110,0.070
'1:08.044',-0.105,0.050
'1:08.047',-0.115,0.065
'1:08.050',-0.125,0.050
'1:08.053',-0.120,0.045
'1:08.056',-0.125,0.050
'1:08.058',-0.120,0.075
'1:08.061',-0.140,0.090
'1:08.064',-0.145,0.085
'1:08.067',-0.150,0.060
'1:08.069',-0.150,0.050
'1:08.072',-0.145,0.060
'1:08.075',-0.150,0.070
'1:08.078',-0.145,0.070
'1:08.081',-0.150,0.065
'1:08.083',-0.155,0.055
'1:08.086',-0.165,0.065
'1:08.089',-0.155,0.070
'1:08.092',-0.145,0.060
'1:08.094',-0.150,0.060
'1:08.097',-0.160,0.060
'1:08.100',-0.170,0.055
'1:08.103',-0.175,0.030
'1:08.106',-0.170,0.060
'1:08.108',-0.160,0.080
'1:08.111',-0.140,0.075
'1:08.114',-0.130,0.070
'1:08.117',-0.140,0.045
'1:08.119',-0.135,0.060
'1:08.122',-0.140,0.060
'1:08.125',-0.120,0.060
'1:08.128',-0.105,0.070
'1:08.131',-0.115,0.090
'1:08.133',-0.115,0.085
'1:08.136',-0.105,0.060
'1:08.139',-0.105,0.060
'1:08.142',-0.085,0.080
'1:08.144',-0.065,0.090
'1:08.147',-0.075,0.085
'1:08.150',-0.060,0.075
'1:08.153',-0.065,0.090
'1:08.156',-0.090,0.090
'1:08.158',-0.080,0.080
'1:08.161',-0.085,0.075
'1:08.164',-0.105,0.100
'1:08.167',-0.120,0.065
'1:08.169',-0.125,0.055
'1:08.172',-0.130,0.065
'1:08.175',-0.130,0.090
'1:08.178',-0.115,0.090
'1:08.181',-0.115,0.075
'1:08.183',-0.135,0.055
'1:08.186',-0.135,0.065
'1:08.189',-0.140,0.075
'1:08.192',-0.125,0.075
'1:08.194',-0.115,0.080
'1:08.197',-0.115,0.095
'1:08.200',-0.120,0.075
'1:08.203',-0.130,0.055
'1:08.206',-0.115,0.070
'1:08.208',-0.115,0.085
'1:08.211',-0.115,0.095
'1:08.214',-0.110,0.070
'1:08.217',-0.110,0.070
'1:08.219',-0.120,0.075
'1:08.222',-0.150,0.095
'1:08.225',-0.160,0.080
'1:08.228',-0.155,0.075
'1:08.231',-0.150,0.085
'1:08.233',-0.170,0.075
'1:08.236',-0.180,0.065
'1:08.239',-0.170,0.070
'1:08.242',-0.180,0.085
'1:08.244',-0.165,0.100
'1:08.247',-0.170,0.095
'1:08.250',-0.170,0.065
'1:08.253',-0.175,0.060
'1:08.256',-0.170,0.080
'1:08.258',-0.160,0.085
'1:08.261',-0.135,0.075
'1:08.264',-0.120,0.085
'1:08.267',-0.120,0.080
'1:08.269',-0.140,0.075
'1:08.272',-0.150,0.065
'1:08.275',-0.145,0.075
'1:08.278',-0.130,0.070
'1:08.281',-0.135,0.060
'1:08.283',-0.140,0.045
'1:08.286',-0.150,0.045
'1:08.289',-0.140,0.065
'1:08.292',-0.070,0.060
'1:08.294',0.000,0.050
'1:08.297',0.100,0.050
'1:08.300',0.205,0.050
'1:08.303',0.310,0.030
'1:08.306',0.400,0.045
'1:08.308',0.495,0.065
'1:08.311',0.605,0.065
'1:08.314',0.735,0.060
'1:08.317',0.860,0.055
'1:08.319',0.960,0.060
'1:08.322',0.995,0.065
'1:08.325',0.960,0.065
'1:08.328',0.875,0.075
'1:08.331',0.765,0.080
'1:08.333',0.610,0.080
'1:08.336',0.355,0.080
'1:08.339',0.070,0.090
'1:08.342',-0.160,0.115
'1:08.344',-0.275,0.135
'1:08.347',-0.360,0.120
'1:08.350',-0.365,0.115
'1:08.353',-0.360,0.110
'1:08.356',-0.330,0.115
'1:08.358',-0.300,0.130
'1:08.361',-0.265,0.095
'1:08.364',-0.260,0.095
'1:08.367',-0.265,0.090
'1:08.369',-0.260,0.080
'1:08.372',-0.275,0.075
'1:08.375',-0.290,0.075
'1:08.378',-0.305,0.095
'1:08.381',-0.310,0.085
'1:08.383',-0.315,0.070
'1:08.386',-0.345,0.055
'1:08.389',-0.350,0.050
'1:08.392',-0.320,0.055
'1:08.394',-0.295,0.055
'1:08.397',-0.265,0.045
'1:08.400',-0.255,0.055
'1:08.403',-0.260,0.065
'1:08.406',-0.245,0.060
'1:08.408',-0.250,0.060
'1:08.411',-0.240,0.050
'1:08.414',-0.240,0.065
'1:08.417',-0.240,0.050
'1:08.419',-0.245,0.040
'1:08.422',-0.260,0.045
'1:08.425',-0.275,0.075
'1:08.428',-0.270,0.090
'1:08.431',-0.270,0.070
'1:08.433',-0.265,0.045
'1:08.436',-0.250,0.035
'1:08.439',-0.245,0.065
'1:08.442',-0.235,0.060
'1:08.444',-0.235,0.060
'1:08.447',-0.230,0.055
'1:08.450',-0.230,0.065
'1:08.453',-0.255,0.065
'1:08.456',-0.250,0.055
'1:08.458',-0.235,0.060
'1:08.461',-0.225,0.075
'1:08.464',-0.230,0.070
'1:08.467',-0.225,0.060
'1:08.469',-0.245,0.040
'1:08.472',-0.240,0.055
'1:08.475',-0.230,0.070
'1:08.478',-0.215,0.080
'1:08.481',-0.200,0.075
'1:08.483',-0.210,0.050
'1:08.486',-0.210,0.050
'1:08.489',-0.215,0.085
'1:08.492',-0.200,0.070
'1:08.494',-0.190,0.070
'1:08.497',-0.205,0.060
'1:08.500',-0.200,0.070
'1:08.503',-0.205,0.070
'1:08.506',-0.195,0.080
'1:08.508',-0.185,0.075
'1:08.511',-0.170,0.075
'1:08.514',-0.170,0.085
'1:08.517',-0.160,0.070
'1:08.519',-0.170,0.065
'1:08.522',-0.170,0.065
'1:08.525',-0.165,0.085
'1:08.528',-0.155,0.100
'1:08.531',-0.145,0.090
'1:08.533',-0.130,0.075
'1:08.536',-0.120,0.065
'1:08.539',-0.130,0.085
'1:08.542',-0.135,0.095
'1:08.544',-0.135,0.070
'1:08.547',-0.150,0.070
'1:08.550',-0.135,0.080
'1:08.553',-0.115,0.090
'1:08.556',-0.090,0.095
'1:08.558',-0.095,0.075
'1:08.561',-0.095,0.080
'1:08.564',-0.105,0.090
'1:08.567',-0.090,0.080
'1:08.569',-0.075,0.065
'1:08.572',-0.070,0.070
'1:08.575',-0.060,0.095
'1:08.578',-0.055,0.110
'1:08.581',-0.055,0.120
'1:08.583',-0.060,0.100
'1:08.586',-0.075,0.085
'1:08.589',-0.080,0.105
'1:08.592',-0.070,0.125
'1:08.594',-0.060,0.110
'1:08.597',-0.060,0.115
'1:08.600',-0.045,0.095
'1:08.603',-0.040,0.110
'1:08.606',-0.050,0.125
'1:08.608',-0.050,0.125
'1:08.611',-0.035,0.105
'1:08.614',-0.020,0.110
'1:08.617',-0.020,0.110
'1:08.619',-0.030,0.105
'1:08.622',-0.040,0.100
'1:08.625',-0.055,0.105
'1:08.628',-0.065,0.115
'1:08.631',-0.090,0.130
'1:08.633',-0.100,0.125
'1:08.636',-0.115,0.095
'1:08.639',-0.130,0.095
'1:08.642',-0.125,0.115
'1:08.644',-0.130,0.115
'1:08.647',-0.130,0.115
'1:08.650',-0.140,0.090
'1:08.653',-0.145,0.090
'1:08.656',-0.150,0.105
'1:08.658',-0.150,0.115
'1:08.661',-0.150,0.105
'1:08.664',-0.155,0.090
'1:08.667',-0.165,0.095
'1:08.669',-0.185,0.095
'1:08.672',-0.195,0.100
'1:08.675',-0.175,0.100
'1:08.678',-0.165,0.105
'1:08.681',-0.160,0.125
'1:08.683',-0.160,0.130
'1:08.686',-0.160,0.120
'1:08.689',-0.175,0.120
'1:08.692',-0.180,0.105
'1:08.694',-0.175,0.120
'1:08.697',-0.160,0.130
'1:08.700',-0.170,0.105
'1:08.703',-0.185,0.090
'1:08.706',-0.200,0.095
'1:08.708',-0.185,0.120
'1:08.711',-0.175,0.135
'1:08.714',-0.180,0.125
'1:08.717',-0.185,0.100
'1:08.719',-0.195,0.090
'1:08.722',-0.195,0.105
'1:08.725',-0.185,0.120
'1:08.728',-0.170,0.120
'1:08.731',-0.175,0.120
'1:08.733',-0.180,0.105
'1:08.736',-0.180,0.130
'1:08.739',-0.180,0.130
'1:08.742',-0.170,0.120
'1:08.744',-0.165,0.115
'1:08.747',-0.170,0.125
'1:08.750',-0.175,0.130
'1:08.753',-0.180,0.115
'1:08.756',-0.190,0.120
'1:08.758',-0.155,0.130
'1:08.761',-0.135,0.155
'1:08.764',-0.135,0.155
'1:08.767',-0.165,0.140
'1:08.769',-0.190,0.110
'1:08.772',-0.200,0.115
'1:08.775',-0.200,0.145
'1:08.778',-0.190,0.145
'1:08.781',-0.210,0.135
'1:08.783',-0.205,0.120
'1:08.786',-0.210,0.115
'1:08.789',-0.220,0.135
'1:08.792',-0.235,0.135
'1:08.794',-0.245,0.120
'1:08.797',-0.265,0.120
'1:08.800',-0.270,0.110
'1:08.803',-0.250,0.105
'1:08.806',-0.225,0.110
'1:08.808',-0.225,0.115
'1:08.811',-0.250,0.115
'1:08.814',-0.285,0.125
'1:08.817',-0.310,0.110
'1:08.819',-0.310,0.105
'1:08.822',-0.295,0.105
'1:08.825',-0.290,0.115
'1:08.828',-0.255,0.120
'1:08.831',-0.265,0.105
'1:08.833',-0.255,0.095
'1:08.836',-0.260,0.085
'1:08.839',-0.245,0.090
'1:08.842',-0.235,0.125
'1:08.844',-0.235,0.115
'1:08.847',-0.265,0.100
'1:08.850',-0.265,0.100
'1:08.853',-0.285,0.095
'1:08.856',-0.280,0.100
'1:08.858',-0.265,0.105
'1:08.861',-0.260,0.105
'1:08.864',-0.265,0.100
'1:08.867',-0.255,0.105
'1:08.869',-0.260,0.105
'1:08.872',-0.255,0.110
'1:08.875',-0.240,0.100
'1:08.878',-0.245,0.105
'1:08.881',-0.240,0.105
'1:08.883',-0.245,0.085
'1:08.886',-0.270,0.080
'1:08.889',-0.245,0.085
'1:08.892',-0.220,0.105
'1:08.894',-0.195,0.125
'1:08.897',-0.215,0.115
'1:08.900',-0.225,0.095
'1:08.903',-0.225,0.095
'1:08.906',-0.235,0.110
'1:08.908',-0.240,0.120
'1:08.911',-0.235,0.105
'1:08.914',-0.255,0.075
'1:08.917',-0.255,0.085
'1:08.919',-0.215,0.090
'1:08.922',-0.180,0.100
'1:08.925',-0.110,0.095
'1:08.928',-0.030,0.080
'1:08.931',0.050,0.095
'1:08.933',0.160,0.095
'1:08.936',0.260,0.080
'1:08.939',0.335,0.075
'1:08.942',0.420,0.090
'1:08.944',0.535,0.105
'1:08.947',0.645,0.125
'1:08.950',0.745,0.115
'1:08.953',0.850,0.100
'1:08.956',0.945,0.105
'1:08.958',0.965,0.125
'1:08.961',0.920,0.125
'1:08.964',0.790,0.115
'1:08.967',0.645,0.105
'1:08.969',0.415,0.115
'1:08.972',0.100,0.150
'1:08.975',-0.175,0.180
'1:08.978',-0.350,0.170
'1:08.981',-0.480,0.170
'1:08.983',-0.555,0.180
'1:08.986',-0.595,0.165
'1:08.989',-0.570,0.170
'1:08.992',-0.505,0.165
'1:08.994',-0.445,0.175
'1:08.997',-0.430,0.180
'1:09.000',-0.415,0.150
'1:09.003',-0.405,0.135
'1:09.006',-0.375,0.150
'1:09.008',-0.360,0.160
'1:09.011',-0.350,0.165
'1:09.014',-0.385,0.150
'1:09.017',-0.420,0.115
'1:09.019',-0.445,0.120
'1:09.022',-0.435,0.125
'1:09.025',-0.420,0.120
'1:09.028',-0.380,0.105
'1:09.031',-0.360,0.105
'1:09.033',-0.335,0.100
'1:09.036',-0.320,0.100
'1:09.039',-0.300,0.090
'1:09.042',-0.290,0.100
'1:09.044',-0.270,0.105
'1:09.047',-0.270,0.115
'1:09.050',-0.290,0.095
'1:09.053',-0.285,0.080
'1:09.056',-0.300,0.080
'1:09.058',-0.300,0.105
'1:09.061',-0.280,0.115
'1:09.064',-0.295,0.095
'1:09.067',-0.305,0.075
'1:09.069',-0.305,0.070
'1:09.072',-0.295,0.095
'1:09.075',-0.280,0.110
'1:09.078',-0.275,0.090
'1:09.081',-0.280,0.090
'1:09.083',-0.285,0.100
'1:09.086',-0.295,0.080
'1:09.089',-0.300,0.085
'1:09.092',-0.290,0.085
'1:09.094',-0.275,0.120
'1:09.097',-0.270,0.105
'1:09.100',-0.280,0.095
'1:09.103',-0.290,0.080
'1:09.106',-0.295,0.100
'1:09.108',-0.280,0.115
'1:09.111',-0.265,0.110
'1:09.114',-0.235,0.090
'1:09.117',-0.230,0.095
'1:09.119',-0.240,0.115
'1:09.122',-0.240,0.100
'1:09.125',-0.235,0.095
'1:09.128',-0.245,0.100
'1:09.131',-0.240,0.125
'1:09.133',-0.210,0.105
'1:09.136',-0.210,0.080
'1:09.139',-0.230,0.085
'1:09.142',-0.215,0.110
'1:09.144',-0.210,0.125
'1:09.147',-0.215,0.120
'1:09.150',-0.185,0.090
'1:09.153',-0.170,0.090
'1:09.156',-0.170,0.110
'1:09.158',-0.145,0.105
'1:09.161',-0.110,0.095
'1:09.164',-0.090,0.105
'1:09.167',-0.090,0.110
'1:09.169',-0.105,0.085
'1:09.172',-0.100,0.085
'1:09.175',-0.080,0.105
'1:09.178',-0.055,0.115
'1:09.181',-0.065,0.120
'1:09.183',-0.045,0.095
'1:09.186',-0.045,0.090
'1:09.189',-0.030,0.115
'1:09.192',0.015,0.135
'1:09.194',0.100,0.130
'1:09.197',0.195,0.115
'1:09.200',0.230,0.105
'1:09.203',0.160,0.110
'1:09.206',-0.010,0.110
'1:09.208',-0.160,0.105
'1:09.211',-0.200,0.110
'1:09.214',-0.160,0.140
'1:09.217',-0.095,0.130
'1:09.219',-0.090,0.120
'1:09.222',-0.085,0.115
'1:09.225',-0.075,0.135
'1:09.228',-0.070,0.145
'1:09.231',-0.065,0.125
'1:09.233',-0.070,0.105
'1:09.236',-0.070,0.125
'1:09.239',-0.070,0.140
'1:09.242',-0.065,0.140
'1:09.244',-0.045,0.150
'1:09.247',-0.065,0.150
'1:09.250',-0.085,0.150
'1:09.253',-0.095,0.130
'1:09.256',-0.110,0.130
'1:09.258',-0.120,0.140
'1:09.261',-0.130,0.170
'1:09.264',-0.130,0.165
'1:09.267',-0.125,0.135
'1:09.269',-0.140,0.120
'1:09.272',-0.145,0.135
'1:09.275',-0.145,0.165
'1:09.278',-0.150,0.155
'1:09.281',-0.170,0.145
'1:09.283',-0.165,0.135
'1:09.286',-0.155,0.150
'1:09.289',-0.150,0.155
'1:09.292',-0.130,0.155
'1:09.294',-0.120,0.145
'1:09.297',-0.110,0.150
'1:09.300',-0.110,0.130
'1:09.303',-0.125,0.115
'1:09.306',-0.135,0.115
'1:09.308',-0.135,0.130
'1:09.311',-0.135,0.135
'1:09.314',-0.145,0.130
'1:09.317',-0.155,0.115
'1:09.319',-0.155,0.120
'1:09.322',-0.175,0.130
'1:09.325',-0.185,0.115
'1:09.328',-0.165,0.120
'1:09.331',-0.165,0.120
'1:09.333',-0.160,0.130
'1:09.336',-0.170,0.125
'1:09.339',-0.165,0.120
'1:09.342',-0.165,0.130
'1:09.344',-0.145,0.130
'1:09.347',-0.160,0.135
'1:09.350',-0.160,0.120
'1:09.353',-0.170,0.095
'1:09.356',-0.175,0.105
'1:09.358',-0.175,0.135
'1:09.361',-0.175,0.120
'1:09.364',-0.175,0.110
'1:09.367',-0.175,0.105
'1:09.369',-0.185,0.105
'1:09.372',-0.190,0.110
'1:09.375',-0.185,0.105
'1:09.378',-0.175,0.110
'1:09.381',-0.190,0.115
'1:09.383',-0.190,0.110
'1:09.386',-0.190,0.090
'1:09.389',-0.205,0.100
'1:09.392',-0.200,0.115
'1:09.394',-0.190,0.120
'1:09.397',-0.195,0.125
'1:09.400',-0.200,0.105
'1:09.403',-0.235,0.085
'1:09.406',-0.230,0.115
'1:09.408',-0.215,0.135
'1:09.411',-0.180,0.120
'1:09.414',-0.170,0.120
'1:09.417',-0.160,0.110
'1:09.419',-0.165,0.110
'1:09.422',-0.185,0.105
'1:09.425',-0.185,0.115
'1:09.428',-0.165,0.120
'1:09.431',-0.155,0.130
'1:09.433',-0.140,0.130
'1:09.436',-0.105,0.100
'1:09.439',-0.105,0.115
'1:09.442',-0.115,0.135
'1:09.444',-0.145,0.145
'1:09.447',-0.175,0.120
'1:09.450',-0.160,0.090
'1:09.453',-0.140,0.100
'1:09.456',-0.110,0.125
'1:09.458',-0.125,0.135
'1:09.461',-0.165,0.115
'1:09.464',-0.215,0.130
'1:09.467',-0.250,0.135
'1:09.469',-0.255,0.125
'1:09.472',-0.230,0.120
'1:09.475',-0.215,0.110
'1:09.478',-0.180,0.125
'1:09.481',-0.175,0.140
'1:09.483',-0.180,0.125
'1:09.486',-0.180,0.120
'1:09.489',-0.165,0.125
'1:09.492',-0.160,0.125
'1:09.494',-0.135,0.150
'1:09.497',-0.160,0.130
'1:09.500',-0.150,0.105
'1:09.503',-0.170,0.100
'1:09.506',-0.160,0.120
'1:09.508',-0.150,0.135
'1:09.511',-0.150,0.115
'1:09.514',-0.145,0.120
'1:09.517',-0.145,0.130
'1:09.519',-0.150,0.125
'1:09.522',-0.155,0.125
'1:09.525',-0.150,0.120
'1:09.528',-0.150,0.115
'1:09.531',-0.135,0.130
'1:09.533',-0.115,0.130
'1:09.536',-0.125,0.110
'1:09.539',-0.125,0.120
'1:09.542',-0.100,0.150
'1:09.544',-0.070,0.155
'1:09.547',-0.070,0.145
'1:09.550',-0.060,0.115
'1:09.553',-0.065,0.120
'1:09.556',-0.045,0.145
'1:09.558',-0.035,0.150
'1:09.561',-0.025,0.140
'1:09.564',-0.050,0.145
'1:09.567',-0.070,0.145
'1:09.569',-0.100,0.145
'1:09.572',-0.105,0.130
'1:09.575',-0.080,0.130
'1:09.578',-0.080,0.135
'1:09.581',-0.075,0.145
'1:09.583',-0.075,0.140
'1:09.586',-0.060,0.115
'1:09.589',-0.060,0.125
'1:09.592',-0.060,0.145
'1:09.594',-0.040,0.155
'1:09.597',-0.055,0.135
'1:09.600',-0.070,0.120
'1:09.603',-0.100,0.115
'1:09.606',-0.120,0.120
'1:09.608',-0.130,0.145
'1:09.611',-0.125,0.130
'1:09.614',-0.120,0.130
'1:09.617',-0.115,0.125
'1:09.619',-0.120,0.125
'1:09.622',-0.140,0.135
'1:09.625',-0.145,0.135
'1:09.628',-0.145,0.125
'1:09.631',-0.155,0.130
'1:09.633',-0.155,0.130
'1:09.636',-0.155,0.110
'1:09.639',-0.160,0.120
'1:09.642',-0.160,0.130
'1:09.644',-0.145,0.150
'1:09.647',-0.135,0.140
'1:09.650',-0.135,0.120
'1:09.653',-0.135,0.110
'1:09.656',-0.120,0.130
'1:09.658',-0.115,0.135
'1:09.661',-0.105,0.130
'1:09.664',-0.095,0.120
'1:09.667',-0.100,0.125
'1:09.669',-0.125,0.125
'1:09.672',-0.135,0.125
'1:09.675',-0.155,0.110
'1:09.678',-0.155,0.120
'1:09.681',-0.175,0.125
'1:09.683',-0.185,0.115
'1:09.686',-0.210,0.100
'1:09.689',-0.215,0.100
'1:09.692',-0.175,0.110
'1:09.694',-0.110,0.140
'1:09.697',-0.020,0.130
'1:09.700',0.075,0.100
'1:09.703',0.165,0.090
'1:09.706',0.260,0.115
'1:09.708',0.355,0.135
'1:09.711',0.445,0.125
'1:09.714',0.530,0.120
'1:09.717',0.615,0.115
'1:09.719',0.720,0.130
'1:09.722',0.840,0.140
'1:09.725',0.970,0.130
'1:09.728',1.100,0.130
'1:09.731',1.175,0.140
'1:09.733',1.200,0.145
'1:09.736',1.135,0.125
'1:09.739',1.025,0.120
'1:09.742',0.870,0.135
'1:09.744',0.620,0.155
'1:09.747',0.260,0.165
'1:09.750',-0.035,0.145
'1:09.753',-0.230,0.150
'1:09.756',-0.320,0.180
'1:09.758',-0.355,0.205
'1:09.761',-0.340,0.200
'1:09.764',-0.295,0.170
'1:09.767',-0.235,0.175
'1:09.769',-0.195,0.175
'1:09.772',-0.160,0.180
'1:09.775',-0.160,0.180
'1:09.778',-0.155,0.180
'1:09.781',-0.160,0.175
'1:09.783',-0.180,0.160
'1:09.786',-0.240,0.145
'1:09.789',-0.295,0.140
'1:09.792',-0.315,0.145
'1:09.794',-0.305,0.140
'1:09.797',-0.290,0.110
'1:09.800',-0.270,0.100
'1:09.803',-0.285,0.090
'1:09.806',-0.310,0.105
'1:09.808',-0.305,0.100
'1:09.811',-0.295,0.110
'1:09.814',-0.300,0.100
'1:09.817',-0.315,0.100
'1:09.819',-0.315,0.085
'1:09.822',-0.330,0.080
'1:09.825',-0.305,0.080
'1:09.828',-0.270,0.095
'1:09.831',-0.250,0.095
'1:09.833',-0.250,0.070
'1:09.836',-0.240,0.075
'1:09.839',-0.230,0.090
'1:09.842',-0.230,0.095
'1:09.844',-0.235,0.085
'1:09.847',-0.260,0.085
'1:09.850',-0.275,0.070
'1:09.853',-0.270,0.075
'1:09.856',-0.265,0.070
'1:09.858',-0.250,0.075
'1:09.861',-0.225,0.085
'1:09.864',-0.230,0.105
'1:09.867',-0.240,0.090
'1:09.869',-0.235,0.065
'1:09.872',-0.240,0.070
'1:09.875',-0.230,0.070
'1:09.878',-0.215,0.085
'1:09.881',-0.220,0.080
'1:09.883',-0.215,0.070
'1:09.886',-0.215,0.060
'1:09.889',-0.215,0.070
'1:09.892',-0.215,0.085
'1:09.894',-0.205,0.080
'1:09.897',-0.210,0.070
'1:09.900',-0.195,0.065
'1:09.903',-0.175,0.060
'1:09.906',-0.165,0.065
'1:09.908',-0.180,0.070
'1:09.911',-0.190,0.080
'1:09.914',-0.190,0.090
'1:09.917',-0.180,0.075
'1:09.919',-0.190,0.055
'1:09.922',-0.190,0.060
'1:09.925',-0.165,0.075
'1:09.928',-0.105,0.075
'1:09.931',-0.085,0.070
'1:09.933',-0.090,0.065
'1:09.936',-0.115,0.075
'1:09.939',-0.115,0.065
'1:09.942',-0.115,0.080
'1:09.944',-0.105,0.070
'1:09.947',-0.130,0.075
'1:09.950',-0.155,0.065
'1:09.953',-0.165,0.055
'1:09.956',-0.160,0.060
'1:09.958',-0.125,0.075
'1:09.961',-0.120,0.085
'1:09.964',-0.115,0.085
'1:09.967',-0.125,0.055
'1:09.969',-0.125,0.045
'1:09.972',-0.130,0.065
'1:09.975',-0.105,0.085
'1:09.978',-0.080,0.080
'1:09.981',-0.080,0.075
'1:09.983',-0.070,0.075
'1:09.986',-0.070,0.085
'1:09.989',-0.065,0.095
'1:09.992',-0.045,0.100
'1:09.994',-0.015,0.080
'1:09.997',0.005,0.095
'1:10.000',0.035,0.085
'1:10.003',0.035,0.060
'1:10.006',0.045,0.080
'1:10.008',0.055,0.090
'1:10.011',0.050,0.110
'1:10.014',0.025,0.110
'1:10.017',0.000,0.070
'1:10.019',-0.020,0.065
'1:10.022',-0.050,0.080
'1:10.025',-0.055,0.100
'1:10.028',-0.045,0.095
'1:10.031',-0.010,0.080
'1:10.033',0.005,0.080
'1:10.036',0.010,0.095
'1:10.039',0.000,0.105
'1:10.042',0.000,0.100
'1:10.044',-0.035,0.085
'1:10.047',-0.080,0.095
'1:10.050',-0.110,0.090
'1:10.053',-0.110,0.075
'1:10.056',-0.105,0.085
'1:10.058',-0.095,0.095
'1:10.061',-0.085,0.110
'1:10.064',-0.085,0.105
'1:10.067',-0.080,0.070
'1:10.069',-0.095,0.070
'1:10.072',-0.085,0.080
'1:10.075',-0.080,0.100
'1:10.078',-0.060,0.090
'1:10.081',-0.075,0.100
'1:10.083',-0.095,0.100
'1:10.086',-0.115,0.090
'1:10.089',-0.125,0.095
'1:10.092',-0.125,0.085
'1:10.094',-0.100,0.090
'1:10.097',-0.080,0.100
'1:10.100',-0.085,0.090
'1:10.103',-0.105,0.070
'1:10.106',-0.130,0.095
'1:10.108',-0.130,0.120
'1:10.111',-0.125,0.120
'1:10.114',-0.130,0.110
'1:10.117',-0.135,0.100
'1:10.119',-0.130,0.095
'1:10.122',-0.130,0.110
'1:10.125',-0.130,0.095
'1:10.128',-0.125,0.100
'1:10.131',-0.120,0.120
'1:10.133',-0.130,0.115
'1:10.136',-0.125,0.095
'1:10.139',-0.140,0.095
'1:10.142',-0.130,0.110
'1:10.144',-0.130,0.115
'1:10.147',-0.140,0.095
'1:10.150',-0.145,0.090
'1:10.153',-0.150,0.090
'1:10.156',-0.165,0.115
'1:10.158',-0.155,0.110
'1:10.161',-0.155,0.090
'1:10.164',-0.160,0.095
'1:10.167',-0.190,0.090
'1:10.169',-0.195,0.080
'1:10.172',-0.200,0.075
'1:10.175',-0.195,0.095
'1:10.178',-0.190,0.125
'1:10.181',-0.190,0.120
'1:10.183',-0.180,0.095
'1:10.186',-0.180,0.065
'1:10.189',-0.180,0.080
'1:10.192',-0.180,0.095
'1:10.194',-0.170,0.075
'1:10.197',-0.185,0.085
'1:10.200',-0.215,0.100
'1:10.203',-0.225,0.090
'1:10.206',-0.185,0.075
'1:10.208',-0.150,0.085
'1:10.211',-0.140,0.085
'1:10.214',-0.160,0.095
'1:10.217',-0.160,0.060
'1:10.219',-0.155,0.075
'1:10.222',-0.145,0.090
'1:10.225',-0.130,0.095
'1:10.228',-0.130,0.070
'1:10.231',-0.145,0.075
'1:10.233',-0.120,0.080
'1:10.236',-0.085,0.070
'1:10.239',-0.080,0.075
'1:10.242',-0.070,0.075
'1:10.244',-0.040,0.090
'1:10.247',-0.010,0.100
'1:10.250',0.035,0.065
'1:10.253',0.050,0.045
'1:10.256',0.025,0.060
'1:10.258',0.005,0.075
'1:10.261',0.045,0.045
'1:10.264',0.100,0.050
'1:10.267',0.160,0.050
'1:10.269',0.195,0.025
'1:10.272',0.200,-0.010
'1:10.275',0.210,-0.005
'1:10.278',0.215,-0.010
'1:10.281',0.180,-0.025
'1:10.283',0.140,-0.040
'1:10.286',0.090,-0.060
'1:10.289',-0.020,-0.050
'1:10.292',-0.240,-0.065
'1:10.294',-0.610,-0.075
'1:10.297',-1.075,-0.080
'1:10.300',-1.535,-0.090
'1:10.303',-1.885,-0.090
'1:10.306',-2.070,-0.075
'1:10.308',-2.125,-0.055
'1:10.311',-2.120,-0.040
'1:10.314',-2.110,-0.035
'1:10.317',-2.085,-0.045
'1:10.319',-2.035,-0.045
'1:10.322',-1.930,-0.015
'1:10.325',-1.730,0.005
'1:10.328',-1.540,0.025
'1:10.331',-1.450,0.040
'1:10.333',-1.440,0.060
'1:10.336',-1.420,0.055
'1:10.339',-1.345,0.065
'1:10.342',-1.205,0.080
'1:10.344',-1.085,0.090
'1:10.347',-1.010,0.080
'1:10.350',-0.955,0.080
'1:10.353',-0.930,0.070
'1:10.356',-0.870,0.085
'1:10.358',-0.795,0.085
'1:10.361',-0.710,0.060
'1:10.364',-0.655,0.065
'1:10.367',-0.600,0.050
'1:10.369',-0.565,0.040
'1:10.372',-0.530,0.055
'1:10.375',-0.500,0.080
'1:10.378',-0.460,0.075
'1:10.381',-0.415,0.065
'1:10.383',-0.340,0.045
'1:10.386',-0.260,0.050
'1:10.389',-0.180,0.075
'1:10.392',-0.090,0.075
'1:10.394',-0.005,0.080
'1:10.397',0.050,0.105
'1:10.400',0.075,0.105
'1:10.403',0.095,0.095
'1:10.406',0.115,0.090
'1:10.408',0.125,0.095
'1:10.411',0.125,0.115
'1:10.414',0.140,0.110
'1:10.417',0.155,0.100
'1:10.419',0.165,0.105
'1:10.422',0.195,0.130
'1:10.425',0.210,0.130
'1:10.428',0.210,0.120
'1:10.431',0.200,0.115
'1:10.433',0.200,0.115
'1:10.436',0.225,0.100
'1:10.439',0.265,0.105
'1:10.442',0.300,0.120
'1:10.444',0.300,0.130
'1:10.447',0.300,0.120
'1:10.450',0.305,0.110
'1:10.453',0.335,0.105
'1:10.456',0.380,0.120
'1:10.458',0.435,0.115
'1:10.461',0.480,0.120
'1:10.464',0.485,0.140
'1:10.467',0.485,0.130
'1:10.469',0.450,0.115
'1:10.472',0.450,0.105
'1:10.475',0.455,0.120
'1:10.478',0.500,0.130
'1:10.481',0.520,0.130
'1:10.483',0.540,0.105
'1:10.486',0.545,0.120
'1:10.489',0.550,0.150
'1:10.492',0.600,0.150
'1:10.494',0.625,0.130
'1:10.497',0.615,0.120
'1:10.500',0.625,0.110
'1:10.503',0.635,0.120
'1:10.506',0.645,0.100
'1:10.508',0.655,0.120
'1:10.511',0.650,0.140
'1:10.514',0.665,0.135
'1:10.517',0.680,0.105
'1:10.519',0.670,0.100
'1:10.522',0.670,0.115
'1:10.525',0.690,0.115
'1:10.528',0.690,0.110
'1:10.531',0.675,0.105
'1:10.533',0.645,0.105
'1:10.536',0.615,0.115
'1:10.539',0.590,0.105
'1:10.542',0.575,0.105
'1:10.544',0.560,0.115
'1:10.547',0.545,0.105
'1:10.550',0.515,0.080
'1:10.553',0.480,0.080
'1:10.556',0.445,0.100
'1:10.558',0.425,0.105
'1:10.561',0.425,0.100
'1:10.564',0.395,0.085
'1:10.567',0.375,0.080
'1:10.569',0.330,0.080
'1:10.572',0.305,0.070
'1:10.575',0.285,0.080
'1:10.578',0.280,0.105
'1:10.581',0.250,0.105
'1:10.583',0.220,0.090
'1:10.586',0.185,0.075
'1:10.589',0.175,0.085
'1:10.592',0.150,0.105
'1:10.594',0.125,0.085
'1:10.597',0.085,0.085
'1:10.600',0.050,0.085
'1:10.603',0.030,0.090
'1:10.606',0.025,0.100
'1:10.608',0.020,0.085
'1:10.611',0.020,0.090
'1:10.614',-0.005,0.105
'1:10.617',-0.030,0.080
'1:10.619',-0.055,0.065
'1:10.622',-0.075,0.090
'1:10.625',-0.090,0.105
'1:10.628',-0.080,0.115
'1:10.631',-0.085,0.095
'1:10.633',-0.105,0.075
'1:10.636',-0.115,0.075
'1:10.639',-0.115,0.075
'1:10.642',-0.105,0.075
'1:10.644',-0.105,0.095
'1:10.647',-0.120,0.105
'1:10.650',-0.135,0.085
'1:10.653',-0.160,0.070
'1:10.656',-0.150,0.070
'1:10.658',-0.145,0.085
'1:10.661',-0.155,0.095
'1:10.664',-0.185,0.075
'1:10.667',-0.195,0.050
'1:10.669',-0.200,0.075
'1:10.672',-0.190,0.105
'1:10.675',-0.185,0.085
'1:10.678',-0.175,0.080
'1:10.681',-0.185,0.055
'1:10.683',-0.195,0.070
'1:10.686',-0.190,0.065
'1:10.689',-0.180,0.055
'1:10.692',-0.170,0.075
'1:10.694',-0.165,0.090
'1:10.697',-0.190,0.080
'1:10.700',-0.200,0.060
'1:10.703',-0.190,0.045
'1:10.706',-0.185,0.075
'1:10.708',-0.175,0.070
'1:10.711',-0.165,0.070
'1:10.714',-0.180,0.070
'1:10.717',-0.200,0.080
'1:10.719',-0.225,0.070
'1:10.722',-0.200,0.060
'1:10.725',-0.205,0.060
'1:10.728',-0.215,0.080
'1:10.731',-0.205,0.075
'1:10.733',-0.190,0.050
'1:10.736',-0.190,0.060
'1:10.739',-0.200,0.075
'1:10.742',-0.190,0.090
'1:10.744',-0.195,0.070
'1:10.747',-0.195,0.065
'1:10.750',-0.195,0.065
'1:10.753',-0.215,0.065
'1:10.756',-0.220,0.065
'1:10.758',-0.225,0.065
'1:10.761',-0.210,0.090
'1:10.764',-0.215,0.105
'1:10.767',-0.210,0.080
'1:10.769',-0.225,0.070
'1:10.772',-0.230,0.075
'1:10.775',-0.220,0.090
'1:10.778',-0.225,0.080
'1:10.781',-0.220,0.075
'1:10.783',-0.225,0.085
'1:10.786',-0.230,0.090
'1:10.789',-0.230,0.075
'1:10.792',-0.240,0.070
'1:10.794',-0.235,0.070
'1:10.797',-0.240,0.090
'1:10.800',-0.235,0.070
'1:10.803',-0.240,0.050
'1:10.806',-0.255,0.070
'1:10.808',-0.245,0.100
'1:10.811',-0.255,0.095
'1:10.814',-0.265,0.075
'1:10.817',-0.255,0.065
'1:10.819',-0.250,0.055
'1:10.822',-0.255,0.065
'1:10.825',-0.255,0.060
'1:10.828',-0.255,0.070
'1:10.831',-0.260,0.075
'1:10.833',-0.255,0.075
'1:10.836',-0.270,0.065
'1:10.839',-0.265,0.055
'1:10.842',-0.250,0.070
'1:10.844',-0.240,0.075
'1:10.847',-0.245,0.065
'1:10.850',-0.250,0.055
'1:10.853',-0.270,0.055
'1:10.856',-0.290,0.070
'1:10.858',-0.280,0.080
'1:10.861',-0.265,0.070
'1:10.864',-0.255,0.080
'1:10.867',-0.255,0.075
'1:10.869',-0.250,0.065
'1:10.872',-0.265,0.060
'1:10.875',-0.275,0.065
'1:10.878',-0.275,0.085
'1:10.881',-0.275,0.080
'1:10.883',-0.275,0.065
'1:10.886',-0.280,0.050
'1:10.889',-0.285,0.065
'1:10.892',-0.270,0.060
'1:10.894',-0.250,0.060
'1:10.897',-0.245,0.055
'1:10.900',-0.240,0.060
'1:10.903',-0.255,0.065
'1:10.906',-0.245,0.065
'1:10.908',-0.250,0.060
'1:10.911',-0.240,0.070
'1:10.914',-0.260,0.070
'1:10.917',-0.270,0.030
'1:10.919',-0.280,0.035
'1:10.922',-0.285,0.065
'1:10.925',-0.270,0.080
'1:10.928',-0.245,0.075
'1:10.931',-0.255,0.065
'1:10.933',-0.270,0.050
'1:10.936',-0.285,0.060
'1:10.939',-0.285,0.055
'1:10.942',-0.290,0.050
'1:10.944',-0.285,0.050
'1:10.947',-0.285,0.060
'1:10.950',-0.280,0.060
'1:10.953',-0.285,0.030
'1:10.956',-0.290,0.045
'1:10.958',-0.280,0.060
'1:10.961',-0.270,0.065
'1:10.964',-0.270,0.045
'1:10.967',-0.270,0.040
'1:10.969',-0.270,0.045
'1:10.972',-0.270,0.055
'1:10.975',-0.275,0.055
'1:10.978',-0.275,0.050
'1:10.981',-0.300,0.060
'1:10.983',-0.290,0.055
'1:10.986',-0.285,0.030
'1:10.989',-0.265,0.040
'1:10.992',-0.260,0.080
'1:10.994',-0.240,0.080
'1:10.997',-0.255,0.065
'1:11.000',-0.260,0.050
'1:11.003',-0.265,0.045
'1:11.006',-0.275,0.055
'1:11.008',-0.260,0.065
'1:11.011',-0.235,0.065
'1:11.014',-0.240,0.055
'1:11.017',-0.240,0.080
'1:11.019',-0.225,0.075
'1:11.022',-0.215,0.060
'1:11.025',-0.220,0.075
'1:11.028',-0.210,0.095
'1:11.031',-0.205,0.085
'1:11.033',-0.215,0.055
'1:11.036',-0.235,0.055
'1:11.039',-0.245,0.080
'1:11.042',-0.230,0.080
'1:11.044',-0.225,0.065
'1:11.047',-0.240,0.070
'1:11.050',-0.255,0.065
'1:11.053',-0.285,0.060
'1:11.056',-0.300,0.050
'1:11.058',-0.295,0.060
'1:11.061',-0.295,0.095
'1:11.064',-0.295,0.075
'1:11.067',-0.290,0.050
'1:11.069',-0.295,0.045
'1:11.072',-0.305,0.055
'1:11.075',-0.295,0.065
'1:11.078',-0.280,0.050
'1:11.081',-0.275,0.045
'1:11.083',-0.260,0.060
'1:11.086',-0.265,0.055
'1:11.089',-0.270,0.055
'1:11.092',-0.275,0.060
'1:11.094',-0.275,0.080
'1:11.097',-0.285,0.085
'1:11.100',-0.310,0.055
'1:11.103',-0.330,0.045
'1:11.106',-0.370,0.070
'1:11.108',-0.345,0.080
'1:11.111',-0.315,0.075
'1:11.114',-0.290,0.070
'1:11.117',-0.275,0.070
'1:11.119',-0.270,0.070
'1:11.122',-0.270,0.050
'1:11.125',-0.265,0.060
'1:11.128',-0.270,0.090
'1:11.131',-0.265,0.095
'1:11.133',-0.240,0.065
'1:11.136',-0.280,0.065
'1:11.139',-0.295,0.070
'1:11.142',-0.290,0.075
'1:11.144',-0.250,0.075
'1:11.147',-0.255,0.070
'1:11.150',-0.290,0.070
'1:11.153',-0.290,0.050
'1:11.156',-0.260,0.040
'1:11.158',-0.190,0.060
'1:11.161',-0.100,0.060
'1:11.164',-0.005,0.045
'1:11.167',0.065,0.025
'1:11.169',0.150,0.030
'1:11.172',0.235,0.045
'1:11.175',0.315,0.035
'1:11.178',0.425,0.035
'1:11.181',0.545,0.060
'1:11.183',0.665,0.050
'1:11.186',0.780,0.040
'1:11.189',0.860,0.040
'1:11.192',0.855,0.060
'1:11.194',0.755,0.065
'1:11.197',0.605,0.050
'1:11.200',0.360,0.045
'1:11.203',-0.020,0.070
'1:11.206',-0.355,0.075
'1:11.208',-0.550,0.095
'1:11.211',-0.625,0.105
'1:11.214',-0.600,0.125
'1:11.217',-0.540,0.110
'1:11.219',-0.485,0.095
'1:11.222',-0.470,0.095
'1:11.225',-0.475,0.110
'1:11.228',-0.460,0.085
'1:11.231',-0.445,0.090
'1:11.233',-0.410,0.095
'1:11.236',-0.405,0.100
'1:11.239',-0.420,0.090
'1:11.242',-0.445,0.075
'1:11.244',-0.435,0.085
'1:11.247',-0.430,0.085
'1:11.250',-0.425,0.055
'1:11.253',-0.425,0.070
'1:11.256',-0.420,0.060
'1:11.258',-0.410,0.075
'1:11.261',-0.395,0.075
'1:11.264',-0.395,0.075
'1:11.267',-0.400,0.070
'1:11.269',-0.395,0.060
'1:11.272',-0.385,0.055
'1:11.275',-0.380,0.065
'1:11.278',-0.395,0.070
'1:11.281',-0.375,0.055
'1:11.283',-0.350,0.045
'1:11.286',-0.360,0.040
'1:11.289',-0.390,0.040
'1:11.292',-0.390,0.035
'1:11.294',-0.355,0.025
'1:11.297',-0.350,0.030
'1:11.300',-0.375,0.025
'1:11.303',-0.395,0.010
'1:11.306',-0.380,0.025
'1:11.308',-0.340,0.035
'1:11.311',-0.330,0.030
'1:11.314',-0.360,0.020
'1:11.317',-0.395,0.010
'1:11.319',-0.385,0.020
'1:11.322',-0.355,0.030
'1:11.325',-0.355,0.025
'1:11.328',-0.345,0.025
'1:11.331',-0.350,0.015
'1:11.333',-0.340,0.010
'1:11.336',-0.320,0.000
'1:11.339',-0.300,0.015
'1:11.342',-0.275,0.020
'1:11.344',-0.270,0.020
'1:11.347',-0.285,0.025
'1:11.350',-0.285,0.015
'1:11.353',-0.295,0.010
'1:11.356',-0.300,0.000
'1:11.358',-0.280,0.000
'1:11.361',-0.265,0.010
'1:11.364',-0.285,0.010
'1:11.367',-0.295,0.005
'1:11.369',-0.295,0.000
'1:11.372',-0.265,-0.005
'1:11.375',-0.255,0.000
'1:11.378',-0.245,-0.020
'1:11.381',-0.285,-0.015
'1:11.383',-0.275,-0.015
'1:11.386',-0.280,-0.030
'1:11.389',-0.285,-0.030
'1:11.392',-0.265,-0.030
'1:11.394',-0.250,-0.015
'1:11.397',-0.255,-0.025
'1:11.400',-0.260,-0.040
'1:11.403',-0.275,-0.040
'1:11.406',-0.285,-0.020
'1:11.408',-0.280,-0.025
'1:11.411',-0.270,-0.025
'1:11.414',-0.260,-0.015
'1:11.417',-0.260,-0.005
'1:11.419',-0.260,-0.025
'1:11.422',-0.260,-0.015
'1:11.425',-0.245,0.005
'1:11.428',-0.250,0.005
'1:11.431',-0.255,0.005
'1:11.433',-0.255,0.005
'1:11.436',-0.220,0.015
'1:11.439',-0.220,0.005
'1:11.442',-0.210,0.020
'1:11.444',-0.205,0.030
'1:11.447',-0.225,0.045
'1:11.450',-0.200,0.025
'1:11.453',-0.205,0.025
'1:11.456',-0.205,0.035
'1:11.458',-0.190,0.065
'1:11.461',-0.185,0.055
'1:11.464',-0.175,0.050
'1:11.467',-0.160,0.055
'1:11.469',-0.150,0.060
'1:11.472',-0.145,0.055
'1:11.475',-0.145,0.060
'1:11.478',-0.155,0.075
'1:11.481',-0.165,0.075
'1:11.483',-0.175,0.050
'1:11.486',-0.180,0.035
'1:11.489',-0.180,0.060
'1:11.492',-0.180,0.085
'1:11.494',-0.185,0.075
'1:11.497',-0.190,0.075
'1:11.500',-0.195,0.080
'1:11.503',-0.185,0.070
'1:11.506',-0.170,0.080
'1:11.508',-0.165,0.075
'1:11.511',-0.155,0.090
'1:11.514',-0.145,0.100
'1:11.517',-0.150,0.075
'1:11.519',-0.155,0.075
'1:11.522',-0.170,0.100
'1:11.525',-0.175,0.100
'1:11.528',-0.170,0.080
'1:11.531',-0.175,0.085
'1:11.533',-0.180,0.100
'1:11.536',-0.190,0.105
'1:11.539',-0.195,0.090
'1:11.542',-0.180,0.100
'1:11.544',-0.165,0.125
'1:11.547',-0.180,0.110
'1:11.550',-0.195,0.090
'1:11.553',-0.205,0.075
'1:11.556',-0.210,0.105
'1:11.558',-0.225,0.105
'1:11.561',-0.215,0.110
'1:11.564',-0.225,0.110
'1:11.567',-0.205,0.125
'1:11.569',-0.220,0.110
'1:11.572',-0.220,0.110
'1:11.575',-0.190,0.115
'1:11.578',-0.185,0.125
'1:11.581',-0.175,0.125
'1:11.583',-0.145,0.115
'1:11.586',-0.125,0.120
'1:11.589',-0.120,0.130
'1:11.592',-0.110,0.130
'1:11.594',-0.080,0.110
'1:11.597',-0.040,0.130
'1:11.600',-0.005,0.110
'1:11.603',-0.015,0.095
'1:11.606',-0.005,0.110
'1:11.608',0.025,0.125
'1:11.611',0.050,0.115
'1:11.614',0.050,0.095
'1:11.617',0.050,0.055
'1:11.619',0.070,0.055
'1:11.622',0.075,0.035
'1:11.625',0.020,0.015
'1:11.628',-0.115,0.020
'1:11.631',-0.390,0.010
'1:11.633',-0.785,-0.035
'1:11.636',-1.235,-0.040
'1:11.639',-1.660,-0.040
'1:11.642',-1.990,-0.020
'1:11.644',-2.145,-0.030
'1:11.647',-2.160,-0.025
'1:11.650',-2.160,-0.020
'1:11.653',-2.145,-0.005
'1:11.656',-2.115,0.005
'1:11.658',-1.990,0.010
'1:11.661',-1.840,0.030
'1:11.664',-1.720,0.070
'1:11.667',-1.620,0.070
'1:11.669',-1.555,0.070
'1:11.672',-1.505,0.090
'1:11.675',-1.385,0.130
'1:11.678',-1.220,0.145
'1:11.681',-1.060,0.125
'1:11.683',-0.950,0.125
'1:11.686',-0.920,0.140
'1:11.689',-0.890,0.140
'1:11.692',-0.840,0.140
'1:11.694',-0.750,0.145
'1:11.697',-0.660,0.135
'1:11.700',-0.610,0.095
'1:11.703',-0.570,0.080
'1:11.706',-0.525,0.105
'1:11.708',-0.440,0.100
'1:11.711',-0.335,0.080
'1:11.714',-0.280,0.080
'1:11.717',-0.280,0.085
'1:11.719',-0.305,0.085
'1:11.722',-0.255,0.070
'1:11.725',-0.165,0.080
'1:11.728',-0.040,0.095
'1:11.731',0.065,0.100
'1:11.733',0.125,0.080
'1:11.736',0.140,0.065
'1:11.739',0.140,0.100
'1:11.742',0.150,0.115
'1:11.744',0.160,0.100
'1:11.747',0.170,0.090
'1:11.750',0.190,0.095
'1:11.753',0.195,0.105
'1:11.756',0.205,0.110
'1:11.758',0.250,0.120
'1:11.761',0.290,0.130
'1:11.764',0.305,0.120
'1:11.767',0.290,0.100
'1:11.769',0.305,0.065
'1:11.772',0.315,0.095
'1:11.775',0.315,0.095
'1:11.778',0.345,0.090
'1:11.781',0.385,0.095
'1:11.783',0.460,0.100
'1:11.786',0.475,0.075
'1:11.789',0.465,0.070
'1:11.792',0.470,0.095
'1:11.794',0.510,0.105
'1:11.797',0.540,0.095
'1:11.800',0.555,0.085
'1:11.803',0.550,0.095
'1:11.806',0.555,0.105
'1:11.808',0.555,0.085
'1:11.811',0.585,0.105
'1:11.814',0.650,0.105
'1:11.817',0.715,0.100
'1:11.819',0.775,0.090
'1:11.822',0.800,0.110
'1:11.825',0.785,0.120
'1:11.828',0.740,0.100
'1:11.831',0.685,0.090
'1:11.833',0.655,0.085
'1:11.836',0.645,0.090
'1:11.839',0.660,0.095
'1:11.842',0.705,0.100
'1:11.844',0.730,0.100
'1:11.847',0.735,0.100
'1:11.850',0.715,0.090
'1:11.853',0.695,0.080
'1:11.856',0.695,0.050
'1:11.858',0.675,0.070
'1:11.861',0.715,0.075
'1:11.864',0.710,0.055
'1:11.867',0.700,0.055
'1:11.869',0.685,0.035
'1:11.872',0.660,0.035
'1:11.875',0.640,0.035
'1:11.878',0.620,0.030
'1:11.881',0.570,0.020
'1:11.883',0.525,0.000
'1:11.886',0.480,0.000
'1:11.889',0.460,0.000
'1:11.892',0.445,0.015
'1:11.894',0.435,0.010
'1:11.897',0.415,-0.020
'1:11.900',0.420,-0.040
'1:11.903',0.430,-0.050
'1:11.906',0.410,-0.045
'1:11.908',0.365,-0.035
'1:11.911',0.270,-0.055
'1:11.914',0.210,-0.050
'1:11.917',0.165,-0.050
'1:11.919',0.170,-0.075
'1:11.922',0.160,-0.080
'1:11.925',0.140,-0.060
'1:11.928',0.125,-0.060
'1:11.931',0.090,-0.065
'1:11.933',0.040,-0.080
'1:11.936',0.030,-0.070
'1:11.939',0.050,-0.060
'1:11.942',0.055,-0.060
'1:11.944',0.065,-0.055
'1:11.947',0.055,-0.050
'1:11.950',0.050,-0.050
'1:11.953',0.040,-0.060
'1:11.956',0.020,-0.035
'1:11.958',0.005,-0.025
'1:11.961',0.000,-0.005
'1:11.964',-0.025,-0.020
'1:11.967',-0.040,-0.030
'1:11.969',-0.045,-0.025
'1:11.972',-0.055,0.000
'1:11.975',-0.055,0.010
'1:11.978',-0.065,0.010
'1:11.981',-0.075,0.025
'1:11.983',-0.080,0.025
'1:11.986',-0.085,0.015
'1:11.989',-0.070,0.010
'1:11.992',-0.065,0.030
'1:11.994',-0.045,0.040
'1:11.997',-0.055,0.040
'1:12.000',-0.055,0.040
'1:12.003',-0.065,0.050
'1:12.006',-0.075,0.065
'1:12.008',-0.070,0.060
'1:12.011',-0.065,0.060
'1:12.014',-0.055,0.065
'1:12.017',-0.055,0.055
'1:12.019',-0.075,0.040
'1:12.022',-0.080,0.055
'1:12.025',-0.090,0.080
'1:12.028',-0.085,0.100
'1:12.031',-0.100,0.095
'1:12.033',-0.105,0.060
'1:12.036',-0.125,0.050
'1:12.039',-0.140,0.075
'1:12.042',-0.140,0.080
'1:12.044',-0.120,0.090
'1:12.047',-0.115,0.095
'1:12.050',-0.110,0.090
'1:12.053',-0.120,0.095
'1:12.056',-0.120,0.080
'1:12.058',-0.110,0.080
'1:12.061',-0.115,0.085
'1:12.064',-0.125,0.090
'1:12.067',-0.140,0.080
'1:12.069',-0.135,0.070
'1:12.072',-0.115,0.100
'1:12.075',-0.100,0.115
'1:12.078',-0.065,0.100
'1:12.081',-0.040,0.100
'1:12.083',-0.035,0.105
'1:12.086',-0.045,0.110
'1:12.089',-0.050,0.105
'1:12.092',-0.035,0.120
'1:12.094',-0.025,0.140
'1:12.097',-0.030,0.150
'1:12.100',-0.040,0.125
'1:12.103',-0.035,0.105
'1:12.106',-0.025,0.110
'1:12.108',-0.015,0.135
'1:12.111',0.000,0.135
'1:12.114',0.010,0.120
'1:12.117',0.015,0.125
'1:12.119',0.015,0.145
'1:12.122',0.015,0.140
'1:12.125',0.010,0.125
'1:12.128',0.005,0.120
'1:12.131',0.015,0.135
'1:12.133',0.025,0.130
'1:12.136',0.010,0.100
'1:12.139',0.030,0.115
'1:12.142',0.040,0.145
'1:12.144',0.070,0.130
'1:12.147',0.120,0.095
'1:12.150',0.160,0.080
'1:12.153',0.195,0.065
'1:12.156',0.215,0.070
'1:12.158',0.240,0.075
'1:12.161',0.290,0.050
'1:12.164',0.340,0.050
'1:12.167',0.380,0.055
'1:12.169',0.415,0.055
'1:12.172',0.465,0.025
'1:12.175',0.525,0.030
'1:12.178',0.590,0.035
'1:12.181',0.670,0.010
'1:12.183',0.785,-0.020
'1:12.186',0.905,-0.035
'1:12.189',1.035,-0.025
'1:12.192',1.160,-0.025
'1:12.194',1.285,-0.050
'1:12.197',1.365,-0.070
'1:12.200',1.440,-0.095
'1:12.203',1.480,-0.105
'1:12.206',1.505,-0.125
'1:12.208',1.480,-0.120
'1:12.211',1.365,-0.110
'1:12.214',1.130,-0.100
'1:12.217',0.815,-0.135
'1:12.219',0.480,-0.145
'1:12.222',0.185,-0.130
'1:12.225',-0.055,-0.100
'1:12.228',-0.305,-0.100
'1:12.231',-0.535,-0.110
'1:12.233',-0.715,-0.095
'1:12.236',-0.835,-0.070
'1:12.239',-0.930,-0.045
'1:12.242',-0.915,-0.030
'1:12.244',-0.865,-0.015
'1:12.247',-0.810,0.015
'1:12.250',-0.765,0.025
'1:12.253',-0.715,0.020
'1:12.256',-0.685,0.030
'1:12.258',-0.635,0.055
'1:12.261',-0.600,0.085
'1:12.264',-0.575,0.070
'1:12.267',-0.570,0.050
'1:12.269',-0.550,0.045
'1:12.272',-0.530,0.065
'1:12.275',-0.490,0.080
'1:12.278',-0.475,0.090
'1:12.281',-0.480,0.100
'1:12.283',-0.490,0.105
'1:12.286',-0.490,0.090
'1:12.289',-0.500,0.080
'1:12.292',-0.510,0.080
'1:12.294',-0.520,0.100
'1:12.297',-0.530,0.100
'1:12.300',-0.525,0.070
'1:12.303',-0.515,0.060
'1:12.306',-0.530,0.080
'1:12.308',-0.540,0.095
'1:12.311',-0.545,0.100
'1:12.314',-0.550,0.075
'1:12.317',-0.555,0.065
'1:12.319',-0.575,0.070
'1:12.322',-0.585,0.090
'1:12.325',-0.575,0.080
'1:12.328',-0.565,0.090
'1:12.331',-0.560,0.105
'1:12.333',-0.565,0.105
'1:12.336',-0.570,0.080
'1:12.339',-0.575,0.075
'1:12.342',-0.575,0.100
'1:12.344',-0.570,0.115
'1:12.347',-0.550,0.085
'1:12.350',-0.535,0.075
'1:12.353',-0.535,0.095
'1:12.356',-0.550,0.105
'1:12.358',-0.550,0.115
'1:12.361',-0.550,0.090
'1:12.364',-0.565,0.110
'1:12.367',-0.590,0.100
'1:12.369',-0.600,0.110
'1:12.372',-0.615,0.110
'1:12.375',-0.630,0.105
'1:12.378',-0.635,0.125
'1:12.381',-0.630,0.125
'1:12.383',-0.630,0.100
'1:12.386',-0.625,0.090
'1:12.389',-0.610,0.105
'1:12.392',-0.595,0.100
'1:12.394',-0.585,0.105
'1:12.397',-0.580,0.100
'1:12.400',-0.575,0.100
'1:12.403',-0.565,0.095
'1:12.406',-0.560,0.105
'1:12.408',-0.560,0.100
'1:12.411',-0.570,0.100
'1:12.414',-0.585,0.100
'1:12.417',-0.595,0.090
'1:12.419',-0.585,0.085
'1:12.422',-0.555,0.090
'1:12.425',-0.515,0.115
'1:12.428',-0.500,0.125
'1:12.431',-0.505,0.100
'1:12.433',-0.510,0.085
'1:12.436',-0.515,0.070
'1:12.439',-0.515,0.085
'1:12.442',-0.505,0.080
'1:12.444',-0.500,0.080
'1:12.447',-0.460,0.075
'1:12.450',-0.450,0.075
'1:12.453',-0.450,0.060
'1:12.456',-0.450,0.060
'1:12.458',-0.445,0.065
'1:12.461',-0.425,0.080
'1:12.464',-0.420,0.080
'1:12.467',-0.400,0.070
'1:12.469',-0.395,0.070
'1:12.472',-0.400,0.085
'1:12.475',-0.390,0.110
'1:12.478',-0.375,0.110
'1:12.481',-0.385,0.090
'1:12.483',-0.365,0.075
'1:12.486',-0.340,0.085
'1:12.489',-0.340,0.085
'1:12.492',-0.325,0.080
'1:12.494',-0.315,0.090
'1:12.497',-0.310,0.105
'1:12.500',-0.320,0.110
'1:12.503',-0.320,0.080
'1:12.506',-0.340,0.075
'1:12.508',-0.335,0.100
'1:12.511',-0.335,0.105
'1:12.514',-0.340,0.090
'1:12.517',-0.340,0.080
'1:12.519',-0.345,0.080
'1:12.522',-0.335,0.095
'1:12.525',-0.320,0.100
'1:12.528',-0.310,0.090
'1:12.531',-0.320,0.080
'1:12.533',-0.305,0.080
'1:12.536',-0.310,0.080
'1:12.539',-0.315,0.060
'1:12.542',-0.300,0.075
'1:12.544',-0.290,0.075
'1:12.547',-0.290,0.095
'1:12.550',-0.305,0.075
'1:12.553',-0.325,0.055
'1:12.556',-0.345,0.070
'1:12.558',-0.330,0.090
'1:12.561',-0.310,0.085
'1:12.564',-0.305,0.075
'1:12.567',-0.300,0.070
'1:12.569',-0.315,0.090
'1:12.572',-0.315,0.100
'1:12.575',-0.305,0.095
'1:12.578',-0.305,0.090
'1:12.581',-0.315,0.100
'1:12.583',-0.320,0.085
'1:12.586',-0.310,0.075
'1:12.589',-0.320,0.065
'1:12.592',-0.325,0.075
'1:12.594',-0.290,0.105
'1:12.597',-0.295,0.090
'1:12.600',-0.300,0.060
'1:12.603',-0.310,0.050
'1:12.606',-0.320,0.060
'1:12.608',-0.300,0.075
'1:12.611',-0.280,0.050
'1:12.614',-0.270,0.060
'1:12.617',-0.290,0.060
'1:12.619',-0.290,0.070
'1:12.622',-0.290,0.065
'1:12.625',-0.295,0.065
'1:12.628',-0.290,0.050
'1:12.631',-0.290,0.065
'1:12.633',-0.300,0.055
'1:12.636',-0.295,0.035
'1:12.639',-0.300,0.035
'1:12.642',-0.290,0.050
'1:12.644',-0.280,0.075
'1:12.647',-0.270,0.050
'1:12.650',-0.270,0.030
'1:12.653',-0.290,0.030
'1:12.656',-0.265,0.040
'1:12.658',-0.265,0.055
'1:12.661',-0.250,0.045
'1:12.664',-0.255,0.030
'1:12.667',-0.260,0.025
'1:12.669',-0.260,0.040
'1:12.672',-0.265,0.040
'1:12.675',-0.260,0.030
'1:12.678',-0.245,0.025
'1:12.681',-0.245,0.040
'1:12.683',-0.255,0.035
'1:12.686',-0.245,0.010
'1:12.689',-0.235,0.005
'1:12.692',-0.230,0.040
'1:12.694',-0.220,0.065
'1:12.697',-0.225,0.050
'1:12.700',-0.220,0.030
'1:12.703',-0.230,0.020
'1:12.706',-0.235,0.025
'1:12.708',-0.240,0.055
'1:12.711',-0.255,0.045
'1:12.714',-0.265,0.030
'1:12.717',-0.250,0.030
'1:12.719',-0.250,0.040
'1:12.722',-0.250,0.055
'1:12.725',-0.250,0.045
'1:12.728',-0.240,0.045
'1:12.731',-0.255,0.045
'1:12.733',-0.270,0.040
'1:12.736',-0.280,0.035
'1:12.739',-0.275,0.020
'1:12.742',-0.265,0.035
'1:12.744',-0.260,0.030
'1:12.747',-0.250,0.045
'1:12.750',-0.240,0.030
'1:12.753',-0.240,0.010
'1:12.756',-0.250,0.005
'1:12.758',-0.245,0.030
'1:12.761',-0.235,0.030
'1:12.764',-0.240,0.015
'1:12.767',-0.240,-0.005
'1:12.769',-0.235,0.015
'1:12.772',-0.225,0.030
'1:12.775',-0.210,0.035
'1:12.778',-0.210,0.030
'1:12.781',-0.240,0.015
'1:12.783',-0.265,0.015
'1:12.786',-0.265,0.020
'1:12.789',-0.285,0.020
'1:12.792',-0.255,0.010
'1:12.794',-0.245,0.025
'1:12.797',-0.230,0.035
'1:12.800',-0.220,0.035
'1:12.803',-0.235,0.010
'1:12.806',-0.230,0.000
'1:12.808',-0.250,0.020
'1:12.811',-0.250,0.025
'1:12.814',-0.265,0.010
'1:12.817',-0.280,0.005
'1:12.819',-0.275,0.010
'1:12.822',-0.275,0.025
'1:12.825',-0.270,0.050
'1:12.828',-0.270,0.040
'1:12.831',-0.280,0.030
'1:12.833',-0.275,0.020
'1:12.836',-0.260,0.020
'1:12.839',-0.255,0.025
'1:12.842',-0.230,0.020
'1:12.844',-0.215,0.025
'1:12.847',-0.215,0.040
'1:12.850',-0.240,0.030
'1:12.853',-0.260,0.025
'1:12.856',-0.250,0.025
'1:12.858',-0.245,0.030
'1:12.861',-0.235,0.050
'1:12.864',-0.240,0.055
'1:12.867',-0.240,0.050
'1:12.869',-0.250,0.025
'1:12.872',-0.245,0.035
'1:12.875',-0.240,0.055
'1:12.878',-0.240,0.075
'1:12.881',-0.240,0.065
'1:12.883',-0.240,0.035
'1:12.886',-0.250,0.030
'1:12.889',-0.245,0.050
'1:12.892',-0.250,0.065
'1:12.894',-0.240,0.055
'1:12.897',-0.240,0.040
'1:12.900',-0.245,0.045
'1:12.903',-0.240,0.050
'1:12.906',-0.245,0.040
'1:12.908',-0.240,0.045
'1:12.911',-0.230,0.050
'1:12.914',-0.235,0.055
'1:12.917',-0.225,0.060
'1:12.919',-0.220,0.035
'1:12.922',-0.225,0.040
'1:12.925',-0.240,0.055
'1:12.928',-0.240,0.080
'1:12.931',-0.265,0.070
'1:12.933',-0.295,0.050
'1:12.936',-0.280,0.035
'1:12.939',-0.235,0.055
'1:12.942',-0.210,0.070
'1:12.944',-0.190,0.060
'1:12.947',-0.205,0.055
'1:12.950',-0.210,0.045
'1:12.953',-0.215,0.060
'1:12.956',-0.215,0.050
'1:12.958',-0.205,0.050
'1:12.961',-0.185,0.055
'1:12.964',-0.175,0.055
'1:12.967',-0.175,0.050
'1:12.969',-0.185,0.035
'1:12.972',-0.200,0.030
'1:12.975',-0.195,0.030
'1:12.978',-0.200,0.045
'1:12.981',-0.190,0.055
'1:12.983',-0.190,0.030
'1:12.986',-0.190,0.010
'1:12.989',-0.205,0.015
'1:12.992',-0.210,0.025
'1:12.994',-0.215,0.040
'1:12.997',-0.220,0.025
'1:13.000',-0.240,0.020
'1:13.003',-0.220,0.030
'1:13.006',-0.220,0.045
'1:13.008',-0.190,0.055
'1:13.011',-0.185,0.045
'1:13.014',-0.190,0.045
'1:13.017',-0.195,0.040
'1:13.019',-0.205,0.040
'1:13.022',-0.205,0.035
'1:13.025',-0.210,0.030
'1:13.028',-0.210,0.040
'1:13.031',-0.205,0.045
'1:13.033',-0.205,0.045
'1:13.036',-0.220,0.035
'1:13.039',-0.225,0.040
'1:13.042',-0.190,0.040
'1:13.044',-0.175,0.050
'1:13.047',-0.165,0.040
'1:13.050',-0.170,0.020
'1:13.053',-0.180,0.015
'1:13.056',-0.195,0.030
'1:13.058',-0.180,0.055
'1:13.061',-0.160,0.035
'1:13.064',-0.165,0.025
'1:13.067',-0.190,0.015
'1:13.069',-0.200,0.015
'1:13.072',-0.205,0.045
'1:13.075',-0.220,0.035
'1:13.078',-0.195,0.020
'1:13.081',-0.185,0.030
'1:13.083',-0.175,0.035
'1:13.086',-0.190,0.035
'1:13.089',-0.185,0.030
'1:13.092',-0.175,0.030
'1:13.094',-0.160,0.045
'1:13.097',-0.170,0.050
'1:13.100',-0.165,0.040
'1:13.103',-0.160,0.015
'1:13.106',-0.160,0.040
'1:13.108',-0.145,0.060
'1:13.111',-0.120,0.075
'1:13.114',-0.120,0.055
'1:13.117',-0.140,0.040
'1:13.119',-0.160,0.045
'1:13.122',-0.190,0.065
'1:13.125',-0.185,0.045
'1:13.128',-0.160,0.030
'1:13.131',-0.115,0.040
'1:13.133',-0.120,0.050
'1:13.136',-0.145,0.035
'1:13.139',-0.160,0.040
'1:13.142',-0.155,0.045
'1:13.144',-0.145,0.055
'1:13.147',-0.150,0.060
'1:13.150',-0.160,0.040
'1:13.153',-0.165,0.005
'1:13.156',-0.170,0.025
'1:13.158',-0.145,0.055
'1:13.161',-0.150,0.060
'1:13.164',-0.160,0.045
'1:13.167',-0.175,0.020
'1:13.169',-0.195,0.010
'1:13.172',-0.190,0.025
'1:13.175',-0.180,0.025
'1:13.178',-0.175,0.015
'1:13.181',-0.170,0.000
'1:13.183',-0.170,0.015
'1:13.186',-0.180,0.015
'1:13.189',-0.185,0.015
'1:13.192',-0.155,0.010
'1:13.194',-0.150,0.030
'1:13.197',-0.150,0.040
'1:13.200',-0.150,0.015
'1:13.203',-0.160,-0.010
'1:13.206',-0.180,0.000
'1:13.208',-0.170,0.040
'1:13.211',-0.165,0.040
'1:13.214',-0.170,0.035
'1:13.217',-0.170,0.020
'1:13.219',-0.190,0.020
'1:13.222',-0.180,0.030
'1:13.225',-0.185,0.025
'1:13.228',-0.175,0.020
'1:13.231',-0.165,0.025
'1:13.233',-0.180,0.035
'1:13.236',-0.180,0.020
'1:13.239',-0.180,0.010
'1:13.242',-0.160,0.025
'1:13.244',-0.150,0.040
'1:13.247',-0.160,0.035
'1:13.250',-0.160,0.000
'1:13.253',-0.185,-0.010
'1:13.256',-0.195,0.010
'1:13.258',-0.200,0.025
'1:13.261',-0.190,0.020
'1:13.264',-0.155,0.020
'1:13.267',-0.085,0.015
'1:13.269',-0.015,0.020
'1:13.272',0.065,0.010
'1:13.275',0.175,0.010
'1:13.278',0.280,0.015
'1:13.281',0.385,0.040
'1:13.283',0.460,0.030
'1:13.286',0.540,0.010
'1:13.289',0.650,0.015
'1:13.292',0.780,0.045
'1:13.294',0.905,0.060
'1:13.297',1.020,0.050
'1:13.300',1.080,0.020
'1:13.303',1.075,0.030
'1:13.306',0.995,0.070
'1:13.308',0.865,0.065
'1:13.311',0.695,0.055
'1:13.314',0.415,0.065
'1:13.317',0.035,0.085
'1:13.319',-0.260,0.105
'1:13.322',-0.440,0.105
'1:13.325',-0.515,0.115
'1:13.328',-0.520,0.135
'1:13.331',-0.470,0.145
'1:13.333',-0.410,0.130
'1:13.336',-0.365,0.105
'1:13.339',-0.330,0.115
'1:13.342',-0.325,0.130
'1:13.344',-0.320,0.125
'1:13.347',-0.310,0.105
'1:13.350',-0.305,0.080
'1:13.353',-0.305,0.090
'1:13.356',-0.305,0.105
'1:13.358',-0.295,0.100
'1:13.361',-0.300,0.090
'1:13.364',-0.310,0.080
'1:13.367',-0.300,0.075
'1:13.369',-0.305,0.060
'1:13.372',-0.310,0.055
'1:13.375',-0.305,0.045
'1:13.378',-0.280,0.070
'1:13.381',-0.235,0.075
'1:13.383',-0.240,0.045
'1:13.386',-0.235,0.035
'1:13.389',-0.240,0.045
'1:13.392',-0.225,0.075
'1:13.394',-0.225,0.065
'1:13.397',-0.225,0.040
'1:13.400',-0.230,0.030
'1:13.403',-0.230,0.050
'1:13.406',-0.240,0.060
'1:13.408',-0.225,0.055
'1:13.411',-0.220,0.060
'1:13.414',-0.220,0.070
'1:13.417',-0.245,0.065
'1:13.419',-0.255,0.045
'1:13.422',-0.265,0.035
'1:13.425',-0.260,0.060
'1:13.428',-0.245,0.085
'1:13.431',-0.245,0.075
'1:13.433',-0.240,0.050
'1:13.436',-0.245,0.040
'1:13.439',-0.250,0.050
'1:13.442',-0.240,0.070
'1:13.444',-0.210,0.065
'1:13.447',-0.195,0.055
'1:13.450',-0.185,0.035
'1:13.453',-0.180,0.045
'1:13.456',-0.195,0.060
'1:13.458',-0.195,0.050
'1:13.461',-0.195,0.045
'1:13.464',-0.205,0.055
'1:13.467',-0.190,0.050
'1:13.469',-0.175,0.035
'1:13.472',-0.130,0.025
'1:13.475',-0.095,0.045
'1:13.478',-0.100,0.055
'1:13.481',-0.130,0.065
'1:13.483',-0.170,0.035
'1:13.486',-0.185,0.015
'1:13.489',-0.190,0.045
'1:13.492',-0.165,0.055
'1:13.494',-0.140,0.040
'1:13.497',-0.140,0.030
'1:13.500',-0.165,0.040
'1:13.503',-0.160,0.020
'1:13.506',-0.160,0.020
'1:13.508',-0.145,0.035
'1:13.511',-0.130,0.035
'1:13.514',-0.100,0.035
'1:13.517',-0.095,0.015
'1:13.519',-0.085,-0.005
'1:13.522',-0.090,0.010
'1:13.525',-0.090,0.015
'1:13.528',-0.100,0.025
'1:13.531',-0.090,0.025
'1:13.533',-0.100,0.015
'1:13.536',-0.120,0.010
'1:13.539',-0.125,0.015
'1:13.542',-0.110,0.005
'1:13.544',-0.085,0.005
'1:13.547',-0.085,0.020
'1:13.550',-0.080,0.025
'1:13.553',-0.080,0.020
'1:13.556',-0.075,0.010
'1:13.558',-0.060,0.020
'1:13.561',-0.050,0.045
'1:13.564',-0.045,0.040
'1:13.567',-0.070,0.015
'1:13.569',-0.070,0.000
'1:13.572',-0.070,0.000
'1:13.575',-0.060,0.025
'1:13.578',-0.050,0.025
'1:13.581',-0.050,0.010
'1:13.583',-0.045,-0.005
'1:13.586',-0.030,0.005
'1:13.589',-0.040,0.010
'1:13.592',-0.040,0.000
'1:13.594',-0.030,-0.010
'1:13.597',-0.020,-0.005
'1:13.600',0.010,-0.005
'1:13.603',0.020,-0.010
'1:13.606',0.040,-0.010
'1:13.608',0.070,-0.005
'1:13.611',0.085,0.015
'1:13.614',0.075,0.000
'1:13.617',0.045,-0.030
'1:13.619',0.015,-0.030
'1:13.622',0.005,-0.005
'1:13.625',0.005,0.000
'1:13.628',0.005,0.000
'1:13.631',-0.020,-0.005
'1:13.633',-0.040,0.000
'1:13.636',-0.050,-0.010
'1:13.639',-0.030,-0.005
'1:13.642',-0.005,-0.010
'1:13.644',0.010,0.000
'1:13.647',-0.010,0.010
'1:13.650',-0.050,-0.005
'1:13.653',-0.095,-0.010
'1:13.656',-0.130,0.000
'1:13.658',-0.100,0.020
'1:13.661',-0.075,0.020
'1:13.664',-0.075,0.000
'1:13.667',-0.090,0.000
'1:13.669',-0.090,-0.010
'1:13.672',-0.100,0.005
'1:13.675',-0.080,0.020
'1:13.678',-0.070,0.015
'1:13.681',-0.080,0.015
'1:13.683',-0.085,0.015
'1:13.686',-0.090,0.020
'1:13.689',-0.095,0.020
'1:13.692',-0.085,0.000
'1:13.694',-0.095,0.005
'1:13.697',-0.105,0.025
'1:13.700',-0.115,0.020
'1:13.703',-0.130,0.000
'1:13.706',-0.125,0.000
'1:13.708',-0.110,0.020
'1:13.711',-0.105,0.035
'1:13.714',-0.100,0.030
'1:13.717',-0.120,0.010
'1:13.719',-0.135,-0.005
'1:13.722',-0.145,0.010
'1:13.725',-0.135,0.035
'1:13.728',-0.125,0.035
'1:13.731',-0.115,0.020
'1:13.733',-0.130,0.010
'1:13.736',-0.140,0.025
'1:13.739',-0.145,0.030
'1:13.742',-0.150,0.040
'1:13.744',-0.135,0.020
'1:13.747',-0.140,0.020
'1:13.750',-0.140,0.030
'1:13.753',-0.135,0.020
'1:13.756',-0.140,0.030
'1:13.758',-0.125,0.035
'1:13.761',-0.105,0.055
'1:13.764',-0.105,0.045
'1:13.767',-0.115,0.030
'1:13.769',-0.105,0.005
'1:13.772',-0.100,0.010
'1:13.775',-0.075,0.050
'1:13.778',-0.060,0.060
'1:13.781',-0.050,0.030
'1:13.783',-0.045,0.025
'1:13.786',-0.050,0.020
'1:13.789',-0.040,0.035
'1:13.792',-0.035,0.045
'1:13.794',-0.020,0.020
'1:13.797',-0.025,0.010
'1:13.800',-0.020,0.020
'1:13.803',0.000,0.010
'1:13.806',0.005,0.015
'1:13.808',0.025,0.005
'1:13.811',0.040,0.020
'1:13.814',0.065,0.010
'1:13.817',0.085,0.005
'1:13.819',0.110,-0.015
'1:13.822',0.155,-0.040
'1:13.825',0.225,-0.030
'1:13.828',0.285,-0.025
'1:13.831',0.325,-0.025
'1:13.833',0.325,-0.060
'1:13.836',0.295,-0.075
'1:13.839',0.305,-0.055
'1:13.842',0.330,-0.035
'1:13.844',0.285,-0.050
'1:13.847',0.145,-0.075
'1:13.850',-0.130,-0.095
'1:13.853',-0.520,-0.085
'1:13.856',-0.900,-0.060
'1:13.858',-1.225,-0.045
'1:13.861',-1.475,-0.045
'1:13.864',-1.650,-0.030
'1:13.867',-1.785,-0.025
'1:13.869',-1.860,-0.010
'1:13.872',-1.890,-0.015
'1:13.875',-1.900,-0.010
'1:13.878',-1.890,-0.005
'1:13.881',-1.890,0.010
'1:13.883',-1.900,0.005
'1:13.886',-1.890,0.000
'1:13.889',-1.835,0.005
'1:13.892',-1.725,0.020
'1:13.894',-1.625,0.055
'1:13.897',-1.545,0.050
'1:13.900',-1.450,0.050
'1:13.903',-1.355,0.020
'1:13.906',-1.290,0.050
'1:13.908',-1.205,0.080
'1:13.911',-1.125,0.070
'1:13.914',-1.065,0.060
'1:13.917',-1.015,0.060
'1:13.919',-0.945,0.055
'1:13.922',-0.870,0.080
'1:13.925',-0.765,0.085
'1:13.928',-0.685,0.075
'1:13.931',-0.625,0.055
'1:13.933',-0.545,0.065
'1:13.936',-0.465,0.080
'1:13.939',-0.410,0.070
'1:13.942',-0.370,0.070
'1:13.944',-0.335,0.070
'1:13.947',-0.335,0.085
