'Elapsed time','MLII','V1'
'hh:mm:ss.mmm','mV','mV'
'23:00.000',0.560,-0.185
'23:00.003',0.745,-0.240
'23:00.006',0.910,-0.315
'23:00.008',1.040,-0.410
'23:00.011',1.170,-0.515
'23:00.014',1.315,-0.630
'23:00.017',1.405,-0.740
'23:00.019',1.395,-0.845
'23:00.022',1.235,-0.950
'23:00.025',0.930,-1.030
'23:00.028',0.535,-1.090
'23:00.031',0.090,-1.110
'23:00.033',-0.305,-1.110
'23:00.036',-0.600,-1.070
'23:00.039',-0.790,-1.000
'23:00.042',-0.840,-0.915
'23:00.044',-0.855,-0.815
'23:00.047',-0.815,-0.735
'23:00.050',-0.770,-0.660
'23:00.053',-0.725,-0.580
'23:00.056',-0.695,-0.525
'23:00.058',-0.680,-0.470
'23:00.061',-0.665,-0.390
'23:00.064',-0.670,-0.325
'23:00.067',-0.670,-0.260
'23:00.069',-0.680,-0.225
'23:00.072',-0.685,-0.190
'23:00.075',-0.695,-0.195
'23:00.078',-0.695,-0.185
'23:00.081',-0.700,-0.185
'23:00.083',-0.705,-0.195
'23:00.086',-0.715,-0.195
'23:00.089',-0.715,-0.195
'23:00.092',-0.720,-0.175
'23:00.094',-0.720,-0.165
'23:00.097',-0.720,-0.150
'23:00.100',-0.710,-0.145
'23:00.103',-0.715,-0.150
'23:00.106',-0.705,-0.145
'23:00.108',-0.725,-0.150
'23:00.111',-0.720,-0.150
'23:00.114',-0.725,-0.150
'23:00.117',-0.740,-0.155
'23:00.119',-0.740,-0.160
'23:00.122',-0.745,-0.170
'23:00.125',-0.745,-0.155
'23:00.128',-0.750,-0.145
'23:00.131',-0.745,-0.145
'23:00.133',-0.750,-0.130
'23:00.136',-0.750,-0.130
'23:00.139',-0.745,-0.135
'23:00.142',-0.750,-0.130
'23:00.144',-0.750,-0.135
'23:00.147',-0.760,-0.140
'23:00.150',-0.770,-0.155
'23:00.153',-0.775,-0.155
'23:00.156',-0.795,-0.155
'23:00.158',-0.800,-0.150
'23:00.161',-0.785,-0.145
'23:00.164',-0.790,-0.135
'23:00.167',-0.795,-0.130
'23:00.169',-0.800,-0.130
'23:00.172',-0.790,-0.125
'23:00.175',-0.800,-0.135
'23:00.178',-0.810,-0.135
'23:00.181',-0.825,-0.140
'23:00.183',-0.835,-0.150
'23:00.186',-0.835,-0.150
'23:00.189',-0.850,-0.150
'23:00.192',-0.855,-0.145
'23:00.194',-0.850,-0.145
'23:00.197',-0.855,-0.140
'23:00.200',-0.850,-0.135
'23:00.203',-0.855,-0.125
'23:00.206',-0.850,-0.115
'23:00.208',-0.860,-0.120
'23:00.211',-0.865,-0.130
'23:00.214',-0.880,-0.120
'23:00.217',-0.885,-0.135
'23:00.219',-0.890,-0.125
'23:00.222',-0.910,-0.140
'23:00.225',-0.910,-0.125
'23:00.228',-0.910,-0.120
'23:00.231',-0.915,-0.110
'23:00.233',-0.905,-0.105
'23:00.236',-0.905,-0.090
'23:00.239',-0.895,-0.095
'23:00.242',-0.890,-0.095
'23:00.244',-0.905,-0.085
'23:00.247',-0.900,-0.105
'23:00.250',-0.920,-0.095
'23:00.253',-0.935,-0.100
'23:00.256',-0.915,-0.105
'23:00.258',-0.915,-0.090
'23:00.261',-0.910,-0.090
'23:00.264',-0.900,-0.075
'23:00.267',-0.890,-0.060
'23:00.269',-0.875,-0.055
'23:00.272',-0.840,-0.055
'23:00.275',-0.840,-0.065
'23:00.278',-0.830,-0.045
'23:00.281',-0.815,-0.060
'23:00.283',-0.805,-0.075
'23:00.286',-0.800,-0.070
'23:00.289',-0.785,-0.085
'23:00.292',-0.770,-0.080
'23:00.294',-0.750,-0.075
'23:00.297',-0.730,-0.075
'23:00.300',-0.710,-0.070
'23:00.303',-0.685,-0.080
'23:00.306',-0.660,-0.065
'23:00.308',-0.650,-0.085
'23:00.311',-0.650,-0.100
'23:00.314',-0.640,-0.105
'23:00.317',-0.640,-0.110
'23:00.319',-0.645,-0.125
'23:00.322',-0.635,-0.125
'23:00.325',-0.635,-0.120
'23:00.328',-0.615,-0.120
'23:00.331',-0.610,-0.130
'23:00.333',-0.595,-0.125
'23:00.336',-0.595,-0.135
'23:00.339',-0.575,-0.120
'23:00.342',-0.580,-0.140
'23:00.344',-0.580,-0.140
'23:00.347',-0.585,-0.150
'23:00.350',-0.600,-0.165
'23:00.353',-0.610,-0.175
'23:00.356',-0.595,-0.175
'23:00.358',-0.600,-0.170
'23:00.361',-0.590,-0.170
'23:00.364',-0.595,-0.155
'23:00.367',-0.585,-0.160
'23:00.369',-0.575,-0.145
'23:00.372',-0.570,-0.155
'23:00.375',-0.580,-0.160
'23:00.378',-0.595,-0.175
'23:00.381',-0.580,-0.180
'23:00.383',-0.605,-0.180
'23:00.386',-0.620,-0.190
'23:00.389',-0.630,-0.190
'23:00.392',-0.615,-0.190
'23:00.394',-0.605,-0.190
'23:00.397',-0.610,-0.185
'23:00.400',-0.605,-0.180
'23:00.403',-0.600,-0.185
'23:00.406',-0.585,-0.185
'23:00.408',-0.585,-0.180
'23:00.411',-0.600,-0.205
'23:00.414',-0.605,-0.210
'23:00.417',-0.615,-0.205
'23:00.419',-0.635,-0.205
'23:00.422',-0.640,-0.215
'23:00.425',-0.650,-0.210
'23:00.428',-0.655,-0.215
'23:00.431',-0.655,-0.200
'23:00.433',-0.650,-0.200
'23:00.436',-0.640,-0.195
'23:00.439',-0.630,-0.185
'23:00.442',-0.645,-0.195
'23:00.444',-0.640,-0.205
'23:00.447',-0.645,-0.210
'23:00.450',-0.655,-0.230
'23:00.453',-0.660,-0.215
'23:00.456',-0.665,-0.225
'23:00.458',-0.665,-0.230
'23:00.461',-0.665,-0.225
'23:00.464',-0.655,-0.210
'23:00.467',-0.640,-0.205
'23:00.469',-0.630,-0.195
'23:00.472',-0.625,-0.200
'23:00.475',-0.625,-0.220
'23:00.478',-0.630,-0.230
'23:00.481',-0.650,-0.230
'23:00.483',-0.670,-0.245
'23:00.486',-0.670,-0.245
'23:00.489',-0.670,-0.250
'23:00.492',-0.660,-0.245
'23:00.494',-0.630,-0.235
'23:00.497',-0.560,-0.250
'23:00.500',-0.480,-0.285
'23:00.503',-0.365,-0.335
'23:00.506',-0.240,-0.435
'23:00.508',-0.110,-0.570
'23:00.511',-0.005,-0.705
'23:00.514',0.095,-0.855
'23:00.517',0.135,-0.975
'23:00.519',0.170,-1.060
'23:00.522',0.180,-1.120
'23:00.525',0.165,-1.145
'23:00.528',0.095,-1.170
'23:00.531',-0.010,-1.165
'23:00.533',-0.135,-1.155
'23:00.536',-0.250,-1.140
'23:00.539',-0.340,-1.110
'23:00.542',-0.430,-1.100
'23:00.544',-0.515,-1.085
'23:00.547',-0.625,-1.090
'23:00.550',-0.750,-1.085
'23:00.553',-0.905,-1.100
'23:00.556',-1.045,-1.095
'23:00.558',-1.165,-1.070
'23:00.561',-1.270,-1.040
'23:00.564',-1.335,-1.000
'23:00.567',-1.345,-0.945
'23:00.569',-1.330,-0.890
'23:00.572',-1.305,-0.855
'23:00.575',-1.275,-0.825
'23:00.578',-1.255,-0.775
'23:00.581',-1.240,-0.750
'23:00.583',-1.225,-0.720
'23:00.586',-1.225,-0.670
'23:00.589',-1.230,-0.635
'23:00.592',-1.235,-0.585
'23:00.594',-1.235,-0.535
'23:00.597',-1.215,-0.485
'23:00.600',-1.180,-0.430
'23:00.603',-1.155,-0.375
'23:00.606',-1.105,-0.340
'23:00.608',-1.065,-0.305
'23:00.611',-1.015,-0.275
'23:00.614',-0.990,-0.260
'23:00.617',-0.935,-0.245
'23:00.619',-0.895,-0.230
'23:00.622',-0.860,-0.210
'23:00.625',-0.815,-0.180
'23:00.628',-0.760,-0.145
'23:00.631',-0.730,-0.110
'23:00.633',-0.720,-0.075
'23:00.636',-0.700,-0.050
'23:00.639',-0.685,-0.015
'23:00.642',-0.695,-0.020
'23:00.644',-0.700,-0.005
'23:00.647',-0.720,-0.015
'23:00.650',-0.720,-0.010
'23:00.653',-0.720,-0.010
'23:00.656',-0.730,-0.010
'23:00.658',-0.720,0.000
'23:00.661',-0.720,0.020
'23:00.664',-0.720,0.035
'23:00.667',-0.710,0.045
'23:00.669',-0.715,0.060
'23:00.672',-0.700,0.060
'23:00.675',-0.705,0.065
'23:00.678',-0.700,0.070
'23:00.681',-0.710,0.075
'23:00.683',-0.710,0.065
'23:00.686',-0.710,0.080
'23:00.689',-0.720,0.080
'23:00.692',-0.730,0.095
'23:00.694',-0.725,0.115
'23:00.697',-0.720,0.125
'23:00.700',-0.715,0.150
'23:00.703',-0.705,0.160
'23:00.706',-0.695,0.180
'23:00.708',-0.710,0.190
'23:00.711',-0.710,0.190
'23:00.714',-0.710,0.200
'23:00.717',-0.705,0.205
'23:00.719',-0.710,0.210
'23:00.722',-0.700,0.220
'23:00.725',-0.695,0.240
'23:00.728',-0.680,0.245
'23:00.731',-0.655,0.270
'23:00.733',-0.650,0.285
'23:00.736',-0.640,0.290
'23:00.739',-0.610,0.310
'23:00.742',-0.600,0.295
'23:00.744',-0.585,0.305
'23:00.747',-0.575,0.300
'23:00.750',-0.560,0.295
'23:00.753',-0.540,0.305
'23:00.756',-0.510,0.295
'23:00.758',-0.505,0.305
'23:00.761',-0.470,0.315
'23:00.764',-0.445,0.305
'23:00.767',-0.415,0.315
'23:00.769',-0.380,0.315
'23:00.772',-0.355,0.310
'23:00.775',-0.340,0.300
'23:00.778',-0.325,0.290
'23:00.781',-0.305,0.275
'23:00.783',-0.290,0.255
'23:00.786',-0.275,0.240
'23:00.789',-0.265,0.230
'23:00.792',-0.245,0.220
'23:00.794',-0.225,0.220
'23:00.797',-0.190,0.200
'23:00.800',-0.170,0.195
'23:00.803',-0.155,0.190
'23:00.806',-0.140,0.170
'23:00.808',-0.130,0.150
'23:00.811',-0.125,0.130
'23:00.814',-0.130,0.095
'23:00.817',-0.140,0.070
'23:00.819',-0.145,0.055
'23:00.822',-0.160,0.025
'23:00.825',-0.155,0.005
'23:00.828',-0.175,0.005
'23:00.831',-0.175,-0.005
'23:00.833',-0.185,-0.015
'23:00.836',-0.185,-0.015
'23:00.839',-0.195,-0.025
'23:00.842',-0.215,-0.050
'23:00.844',-0.235,-0.075
'23:00.847',-0.250,-0.080
'23:00.850',-0.290,-0.115
'23:00.853',-0.295,-0.120
'23:00.856',-0.325,-0.135
'23:00.858',-0.350,-0.140
'23:00.861',-0.365,-0.140
'23:00.864',-0.385,-0.135
'23:00.867',-0.395,-0.140
'23:00.869',-0.405,-0.125
'23:00.872',-0.415,-0.125
'23:00.875',-0.435,-0.150
'23:00.878',-0.460,-0.155
'23:00.881',-0.475,-0.160
'23:00.883',-0.505,-0.170
'23:00.886',-0.500,-0.180
'23:00.889',-0.520,-0.185
'23:00.892',-0.530,-0.175
'23:00.894',-0.535,-0.165
'23:00.897',-0.545,-0.160
'23:00.900',-0.545,-0.165
'23:00.903',-0.540,-0.145
'23:00.906',-0.545,-0.145
'23:00.908',-0.550,-0.145
'23:00.911',-0.550,-0.155
'23:00.914',-0.565,-0.160
'23:00.917',-0.565,-0.160
'23:00.919',-0.590,-0.170
'23:00.922',-0.595,-0.170
'23:00.925',-0.605,-0.165
'23:00.928',-0.595,-0.160
'23:00.931',-0.590,-0.165
'23:00.933',-0.585,-0.155
'23:00.936',-0.575,-0.150
'23:00.939',-0.570,-0.135
'23:00.942',-0.575,-0.150
'23:00.944',-0.575,-0.160
'23:00.947',-0.570,-0.170
'23:00.950',-0.575,-0.175
'23:00.953',-0.595,-0.180
'23:00.956',-0.595,-0.175
'23:00.958',-0.585,-0.170
'23:00.961',-0.585,-0.175
'23:00.964',-0.575,-0.170
'23:00.967',-0.585,-0.165
'23:00.969',-0.570,-0.155
'23:00.972',-0.575,-0.155
'23:00.975',-0.570,-0.165
'23:00.978',-0.565,-0.155
'23:00.981',-0.575,-0.170
'23:00.983',-0.585,-0.190
'23:00.986',-0.575,-0.195
'23:00.989',-0.580,-0.195
'23:00.992',-0.575,-0.190
'23:00.994',-0.575,-0.195
'23:00.997',-0.580,-0.195
'23:01.000',-0.575,-0.175
'23:01.003',-0.570,-0.170
'23:01.006',-0.575,-0.165
'23:01.008',-0.580,-0.175
'23:01.011',-0.565,-0.180
'23:01.014',-0.565,-0.190
'23:01.017',-0.570,-0.190
'23:01.019',-0.570,-0.205
'23:01.022',-0.585,-0.210
'23:01.025',-0.585,-0.200
'23:01.028',-0.585,-0.200
'23:01.031',-0.575,-0.195
'23:01.033',-0.570,-0.190
'23:01.036',-0.580,-0.190
'23:01.039',-0.575,-0.190
'23:01.042',-0.570,-0.195
'23:01.044',-0.585,-0.200
'23:01.047',-0.575,-0.200
'23:01.050',-0.590,-0.225
'23:01.053',-0.585,-0.225
'23:01.056',-0.590,-0.220
'23:01.058',-0.600,-0.225
'23:01.061',-0.605,-0.225
'23:01.064',-0.605,-0.210
'23:01.067',-0.600,-0.205
'23:01.069',-0.590,-0.200
'23:01.072',-0.575,-0.200
'23:01.075',-0.585,-0.215
'23:01.078',-0.585,-0.215
'23:01.081',-0.595,-0.225
'23:01.083',-0.585,-0.230
'23:01.086',-0.590,-0.230
'23:01.089',-0.595,-0.245
'23:01.092',-0.590,-0.230
'23:01.094',-0.600,-0.230
'23:01.097',-0.605,-0.225
'23:01.100',-0.595,-0.215
'23:01.103',-0.585,-0.210
'23:01.106',-0.580,-0.210
'23:01.108',-0.590,-0.210
'23:01.111',-0.590,-0.215
'23:01.114',-0.590,-0.215
'23:01.117',-0.595,-0.220
'23:01.119',-0.590,-0.235
'23:01.122',-0.585,-0.240
'23:01.125',-0.620,-0.230
'23:01.128',-0.595,-0.225
'23:01.131',-0.590,-0.215
'23:01.133',-0.590,-0.215
'23:01.136',-0.590,-0.205
'23:01.139',-0.580,-0.210
'23:01.142',-0.570,-0.220
'23:01.144',-0.570,-0.205
'23:01.147',-0.570,-0.215
'23:01.150',-0.570,-0.225
'23:01.153',-0.570,-0.220
'23:01.156',-0.580,-0.230
'23:01.158',-0.575,-0.215
'23:01.161',-0.570,-0.225
'23:01.164',-0.570,-0.220
'23:01.167',-0.565,-0.210
'23:01.169',-0.565,-0.200
'23:01.172',-0.545,-0.195
'23:01.175',-0.550,-0.205
'23:01.178',-0.550,-0.200
'23:01.181',-0.550,-0.215
'23:01.183',-0.540,-0.210
'23:01.186',-0.560,-0.215
'23:01.189',-0.565,-0.200
'23:01.192',-0.555,-0.195
'23:01.194',-0.545,-0.190
'23:01.197',-0.530,-0.180
'23:01.200',-0.535,-0.150
'23:01.203',-0.515,-0.150
'23:01.206',-0.500,-0.140
'23:01.208',-0.490,-0.140
'23:01.211',-0.490,-0.150
'23:01.214',-0.475,-0.160
'23:01.217',-0.475,-0.165
'23:01.219',-0.465,-0.185
'23:01.222',-0.470,-0.195
'23:01.225',-0.455,-0.200
'23:01.228',-0.440,-0.210
'23:01.231',-0.440,-0.220
'23:01.233',-0.445,-0.240
'23:01.236',-0.450,-0.255
'23:01.239',-0.460,-0.270
'23:01.242',-0.470,-0.275
'23:01.244',-0.490,-0.275
'23:01.247',-0.500,-0.275
'23:01.250',-0.505,-0.265
'23:01.253',-0.520,-0.265
'23:01.256',-0.535,-0.260
'23:01.258',-0.560,-0.240
'23:01.261',-0.575,-0.230
'23:01.264',-0.580,-0.230
'23:01.267',-0.605,-0.225
'23:01.269',-0.600,-0.210
'23:01.272',-0.610,-0.210
'23:01.275',-0.615,-0.200
'23:01.278',-0.620,-0.200
'23:01.281',-0.635,-0.220
'23:01.283',-0.635,-0.220
'23:01.286',-0.645,-0.220
'23:01.289',-0.640,-0.220
'23:01.292',-0.645,-0.240
'23:01.294',-0.635,-0.235
'23:01.297',-0.620,-0.215
'23:01.300',-0.615,-0.210
'23:01.303',-0.605,-0.220
'23:01.306',-0.600,-0.200
'23:01.308',-0.600,-0.235
'23:01.311',-0.590,-0.210
'23:01.314',-0.600,-0.230
'23:01.317',-0.595,-0.230
'23:01.319',-0.595,-0.240
'23:01.322',-0.595,-0.245
'23:01.325',-0.580,-0.245
'23:01.328',-0.555,-0.245
'23:01.331',-0.530,-0.240
'23:01.333',-0.475,-0.230
'23:01.336',-0.410,-0.230
'23:01.339',-0.330,-0.230
'23:01.342',-0.245,-0.235
'23:01.344',-0.155,-0.245
'23:01.347',-0.040,-0.260
'23:01.350',0.085,-0.275
'23:01.353',0.235,-0.295
'23:01.356',0.390,-0.315
'23:01.358',0.545,-0.350
'23:01.361',0.690,-0.400
'23:01.364',0.815,-0.470
'23:01.367',0.950,-0.560
'23:01.369',1.080,-0.660
'23:01.372',1.220,-0.750
'23:01.375',1.355,-0.860
'23:01.378',1.445,-0.980
'23:01.381',1.405,-1.085
'23:01.383',1.205,-1.175
'23:01.386',0.895,-1.275
'23:01.389',0.500,-1.345
'23:01.392',0.080,-1.365
'23:01.394',-0.285,-1.375
'23:01.397',-0.595,-1.335
'23:01.400',-0.760,-1.260
'23:01.403',-0.835,-1.165
'23:01.406',-0.830,-1.085
'23:01.408',-0.810,-0.985
'23:01.411',-0.760,-0.900
'23:01.414',-0.740,-0.825
'23:01.417',-0.740,-0.755
'23:01.419',-0.740,-0.690
'23:01.422',-0.740,-0.630
'23:01.425',-0.725,-0.555
'23:01.428',-0.725,-0.485
'23:01.431',-0.720,-0.410
'23:01.433',-0.720,-0.350
'23:01.436',-0.725,-0.310
'23:01.439',-0.710,-0.270
'23:01.442',-0.705,-0.260
'23:01.444',-0.715,-0.265
'23:01.447',-0.730,-0.270
'23:01.450',-0.735,-0.270
'23:01.453',-0.735,-0.275
'23:01.456',-0.745,-0.275
'23:01.458',-0.750,-0.250
'23:01.461',-0.750,-0.245
'23:01.464',-0.755,-0.240
'23:01.467',-0.755,-0.230
'23:01.469',-0.750,-0.215
'23:01.472',-0.745,-0.220
'23:01.475',-0.730,-0.215
'23:01.478',-0.740,-0.220
'23:01.481',-0.740,-0.225
'23:01.483',-0.775,-0.240
'23:01.486',-0.765,-0.245
'23:01.489',-0.780,-0.240
'23:01.492',-0.785,-0.245
'23:01.494',-0.775,-0.235
'23:01.497',-0.775,-0.225
'23:01.500',-0.760,-0.230
'23:01.503',-0.780,-0.220
'23:01.506',-0.765,-0.215
'23:01.508',-0.790,-0.220
'23:01.511',-0.790,-0.225
'23:01.514',-0.785,-0.230
'23:01.517',-0.795,-0.235
'23:01.519',-0.800,-0.240
'23:01.522',-0.815,-0.240
'23:01.525',-0.820,-0.235
'23:01.528',-0.825,-0.225
'23:01.531',-0.815,-0.225
'23:01.533',-0.820,-0.210
'23:01.536',-0.825,-0.220
'23:01.539',-0.815,-0.200
'23:01.542',-0.800,-0.205
'23:01.544',-0.815,-0.205
'23:01.547',-0.835,-0.225
'23:01.550',-0.835,-0.225
'23:01.553',-0.845,-0.240
'23:01.556',-0.865,-0.245
'23:01.558',-0.870,-0.230
'23:01.561',-0.870,-0.220
'23:01.564',-0.865,-0.215
'23:01.567',-0.870,-0.215
'23:01.569',-0.870,-0.190
'23:01.572',-0.860,-0.185
'23:01.575',-0.865,-0.200
'23:01.578',-0.870,-0.200
'23:01.581',-0.885,-0.200
'23:01.583',-0.895,-0.205
'23:01.586',-0.910,-0.220
'23:01.589',-0.915,-0.205
'23:01.592',-0.925,-0.195
'23:01.594',-0.920,-0.195
'23:01.597',-0.925,-0.180
'23:01.600',-0.915,-0.180
'23:01.603',-0.920,-0.180
'23:01.606',-0.905,-0.170
'23:01.608',-0.905,-0.165
'23:01.611',-0.900,-0.170
'23:01.614',-0.900,-0.170
'23:01.617',-0.915,-0.175
'23:01.619',-0.920,-0.175
'23:01.622',-0.930,-0.170
'23:01.625',-0.930,-0.170
'23:01.628',-0.920,-0.165
'23:01.631',-0.905,-0.145
'23:01.633',-0.895,-0.135
'23:01.636',-0.885,-0.140
'23:01.639',-0.865,-0.125
'23:01.642',-0.850,-0.140
'23:01.644',-0.840,-0.145
'23:01.647',-0.840,-0.145
'23:01.650',-0.825,-0.145
'23:01.653',-0.825,-0.155
'23:01.656',-0.815,-0.165
'23:01.658',-0.810,-0.155
'23:01.661',-0.780,-0.150
'23:01.664',-0.755,-0.150
'23:01.667',-0.725,-0.150
'23:01.669',-0.700,-0.150
'23:01.672',-0.670,-0.145
'23:01.675',-0.660,-0.160
'23:01.678',-0.655,-0.165
'23:01.681',-0.635,-0.175
'23:01.683',-0.645,-0.190
'23:01.686',-0.640,-0.210
'23:01.689',-0.635,-0.220
'23:01.692',-0.635,-0.210
'23:01.694',-0.630,-0.210
'23:01.697',-0.620,-0.215
'23:01.700',-0.605,-0.205
'23:01.703',-0.585,-0.210
'23:01.706',-0.575,-0.205
'23:01.708',-0.570,-0.225
'23:01.711',-0.570,-0.220
'23:01.714',-0.580,-0.250
'23:01.717',-0.585,-0.245
'23:01.719',-0.600,-0.250
'23:01.722',-0.610,-0.270
'23:01.725',-0.605,-0.260
'23:01.728',-0.595,-0.250
'23:01.731',-0.580,-0.240
'23:01.733',-0.575,-0.250
'23:01.736',-0.590,-0.240
'23:01.739',-0.575,-0.235
'23:01.742',-0.575,-0.245
'23:01.744',-0.590,-0.245
'23:01.747',-0.580,-0.265
'23:01.750',-0.590,-0.265
'23:01.753',-0.605,-0.275
'23:01.756',-0.605,-0.280
'23:01.758',-0.610,-0.280
'23:01.761',-0.615,-0.260
'23:01.764',-0.605,-0.270
'23:01.767',-0.605,-0.250
'23:01.769',-0.605,-0.255
'23:01.772',-0.595,-0.250
'23:01.775',-0.595,-0.250
'23:01.778',-0.600,-0.260
'23:01.781',-0.610,-0.270
'23:01.783',-0.620,-0.285
'23:01.786',-0.620,-0.290
'23:01.789',-0.630,-0.290
'23:01.792',-0.635,-0.280
'23:01.794',-0.635,-0.275
'23:01.797',-0.655,-0.270
'23:01.800',-0.645,-0.280
'23:01.803',-0.645,-0.255
'23:01.806',-0.635,-0.250
'23:01.808',-0.625,-0.270
'23:01.811',-0.635,-0.260
'23:01.814',-0.630,-0.280
'23:01.817',-0.635,-0.280
'23:01.819',-0.645,-0.290
'23:01.822',-0.645,-0.305
'23:01.825',-0.660,-0.300
'23:01.828',-0.645,-0.295
'23:01.831',-0.645,-0.275
'23:01.833',-0.630,-0.280
'23:01.836',-0.615,-0.285
'23:01.839',-0.620,-0.285
'23:01.842',-0.645,-0.290
'23:01.844',-0.655,-0.300
'23:01.847',-0.665,-0.290
'23:01.850',-0.655,-0.300
'23:01.853',-0.615,-0.310
'23:01.856',-0.550,-0.365
'23:01.858',-0.435,-0.425
'23:01.861',-0.285,-0.535
'23:01.864',-0.125,-0.685
'23:01.867',0.005,-0.840
'23:01.869',0.100,-0.975
'23:01.872',0.150,-1.090
'23:01.875',0.150,-1.165
'23:01.878',0.080,-1.205
'23:01.881',-0.040,-1.220
'23:01.883',-0.215,-1.210
'23:01.886',-0.385,-1.180
'23:01.889',-0.535,-1.140
'23:01.892',-0.655,-1.095
'23:01.894',-0.750,-1.060
'23:01.897',-0.845,-1.055
'23:01.900',-0.965,-1.035
'23:01.903',-1.080,-1.025
'23:01.906',-1.190,-1.000
'23:01.908',-1.285,-0.985
'23:01.911',-1.335,-0.970
'23:01.914',-1.360,-0.965
'23:01.917',-1.360,-0.940
'23:01.919',-1.320,-0.920
'23:01.922',-1.295,-0.895
'23:01.925',-1.260,-0.845
'23:01.928',-1.230,-0.795
'23:01.931',-1.205,-0.735
'23:01.933',-1.180,-0.680
'23:01.936',-1.170,-0.610
'23:01.939',-1.155,-0.565
'23:01.942',-1.155,-0.515
'23:01.944',-1.125,-0.470
'23:01.947',-1.100,-0.445
'23:01.950',-1.070,-0.410
'23:01.953',-1.035,-0.390
'23:01.956',-1.010,-0.345
'23:01.958',-0.980,-0.330
'23:01.961',-0.940,-0.300
'23:01.964',-0.895,-0.260
'23:01.967',-0.845,-0.255
'23:01.969',-0.800,-0.220
'23:01.972',-0.765,-0.195
'23:01.975',-0.720,-0.180
'23:01.978',-0.695,-0.150
'23:01.981',-0.675,-0.140
'23:01.983',-0.670,-0.125
'23:01.986',-0.660,-0.110
'23:01.989',-0.670,-0.100
'23:01.992',-0.665,-0.090
'23:01.994',-0.670,-0.075
'23:01.997',-0.655,-0.055
'23:02.000',-0.655,-0.055
'23:02.003',-0.650,-0.025
'23:02.006',-0.650,-0.040
'23:02.008',-0.635,-0.030
'23:02.011',-0.640,-0.035
'23:02.014',-0.625,-0.025
'23:02.017',-0.650,-0.025
'23:02.019',-0.640,-0.040
'23:02.022',-0.655,-0.030
'23:02.025',-0.655,-0.020
'23:02.028',-0.650,-0.015
'23:02.031',-0.645,0.005
'23:02.033',-0.645,0.020
'23:02.036',-0.645,0.025
'23:02.039',-0.630,0.040
'23:02.042',-0.630,0.050
'23:02.044',-0.620,0.050
'23:02.047',-0.625,0.040
'23:02.050',-0.625,0.045
'23:02.053',-0.620,0.040
'23:02.056',-0.635,0.060
'23:02.058',-0.645,0.075
'23:02.061',-0.645,0.085
'23:02.064',-0.635,0.095
'23:02.067',-0.625,0.120
'23:02.069',-0.625,0.135
'23:02.072',-0.610,0.160
'23:02.075',-0.600,0.160
'23:02.078',-0.605,0.175
'23:02.081',-0.590,0.185
'23:02.083',-0.580,0.185
'23:02.086',-0.565,0.195
'23:02.089',-0.565,0.195
'23:02.092',-0.565,0.205
'23:02.094',-0.535,0.220
'23:02.097',-0.520,0.235
'23:02.100',-0.490,0.255
'23:02.103',-0.460,0.260
'23:02.106',-0.425,0.265
'23:02.108',-0.415,0.255
'23:02.111',-0.390,0.265
'23:02.114',-0.370,0.260
'23:02.117',-0.355,0.250
'23:02.119',-0.335,0.245
'23:02.122',-0.305,0.235
'23:02.125',-0.290,0.235
'23:02.128',-0.265,0.245
'23:02.131',-0.245,0.255
'23:02.133',-0.210,0.245
'23:02.136',-0.175,0.250
'23:02.139',-0.150,0.250
'23:02.142',-0.125,0.225
'23:02.144',-0.110,0.205
'23:02.147',-0.085,0.180
'23:02.150',-0.085,0.160
'23:02.153',-0.070,0.145
'23:02.156',-0.055,0.130
'23:02.158',-0.055,0.105
'23:02.161',-0.050,0.095
'23:02.164',-0.040,0.085
'23:02.167',-0.020,0.090
'23:02.169',-0.020,0.075
'23:02.172',-0.015,0.055
'23:02.175',-0.005,0.045
'23:02.178',-0.035,0.015
'23:02.181',-0.050,0.005
'23:02.183',-0.050,-0.025
'23:02.186',-0.070,-0.040
'23:02.189',-0.085,-0.060
'23:02.192',-0.105,-0.060
'23:02.194',-0.110,-0.070
'23:02.197',-0.140,-0.080
'23:02.200',-0.135,-0.095
'23:02.203',-0.150,-0.095
'23:02.206',-0.170,-0.100
'23:02.208',-0.185,-0.120
'23:02.211',-0.205,-0.125
'23:02.214',-0.225,-0.145
'23:02.217',-0.255,-0.150
'23:02.219',-0.275,-0.155
'23:02.222',-0.295,-0.170
'23:02.225',-0.325,-0.170
'23:02.228',-0.340,-0.175
'23:02.231',-0.345,-0.165
'23:02.233',-0.365,-0.165
'23:02.236',-0.385,-0.155
'23:02.239',-0.385,-0.165
'23:02.242',-0.390,-0.155
'23:02.244',-0.405,-0.165
'23:02.247',-0.430,-0.170
'23:02.250',-0.445,-0.180
'23:02.253',-0.465,-0.185
'23:02.256',-0.480,-0.190
'23:02.258',-0.485,-0.190
'23:02.261',-0.490,-0.180
'23:02.264',-0.495,-0.180
'23:02.267',-0.490,-0.160
'23:02.269',-0.495,-0.170
'23:02.272',-0.485,-0.160
'23:02.275',-0.480,-0.170
'23:02.278',-0.485,-0.165
'23:02.281',-0.495,-0.165
'23:02.283',-0.510,-0.185
'23:02.286',-0.530,-0.185
'23:02.289',-0.520,-0.180
'23:02.292',-0.520,-0.180
'23:02.294',-0.530,-0.175
'23:02.297',-0.510,-0.185
'23:02.300',-0.505,-0.165
'23:02.303',-0.500,-0.155
'23:02.306',-0.495,-0.160
'23:02.308',-0.500,-0.165
'23:02.311',-0.495,-0.170
'23:02.314',-0.500,-0.170
'23:02.317',-0.505,-0.175
'23:02.319',-0.505,-0.185
'23:02.322',-0.505,-0.190
'23:02.325',-0.505,-0.200
'23:02.328',-0.505,-0.190
'23:02.331',-0.505,-0.185
'23:02.333',-0.500,-0.180
'23:02.336',-0.495,-0.165
'23:02.339',-0.490,-0.180
'23:02.342',-0.490,-0.170
'23:02.344',-0.485,-0.185
'23:02.347',-0.500,-0.190
'23:02.350',-0.505,-0.200
'23:02.353',-0.500,-0.210
'23:02.356',-0.520,-0.215
'23:02.358',-0.515,-0.215
'23:02.361',-0.510,-0.195
'23:02.364',-0.520,-0.190
'23:02.367',-0.510,-0.180
'23:02.369',-0.495,-0.190
'23:02.372',-0.490,-0.175
'23:02.375',-0.495,-0.175
'23:02.378',-0.500,-0.185
'23:02.381',-0.505,-0.200
'23:02.383',-0.525,-0.205
'23:02.386',-0.525,-0.220
'23:02.389',-0.525,-0.220
'23:02.392',-0.540,-0.210
'23:02.394',-0.540,-0.210
'23:02.397',-0.530,-0.210
'23:02.400',-0.530,-0.200
'23:02.403',-0.525,-0.190
'23:02.406',-0.515,-0.190
'23:02.408',-0.510,-0.195
'23:02.411',-0.510,-0.190
'23:02.414',-0.520,-0.210
'23:02.417',-0.525,-0.205
'23:02.419',-0.525,-0.215
'23:02.422',-0.545,-0.220
'23:02.425',-0.555,-0.215
'23:02.428',-0.555,-0.200
'23:02.431',-0.540,-0.205
'23:02.433',-0.530,-0.190
'23:02.436',-0.520,-0.195
'23:02.439',-0.515,-0.180
'23:02.442',-0.520,-0.190
'23:02.444',-0.545,-0.190
'23:02.447',-0.535,-0.205
'23:02.450',-0.535,-0.215
'23:02.453',-0.545,-0.220
'23:02.456',-0.550,-0.210
'23:02.458',-0.550,-0.205
'23:02.461',-0.545,-0.200
'23:02.464',-0.545,-0.205
'23:02.467',-0.540,-0.195
'23:02.469',-0.530,-0.180
'23:02.472',-0.525,-0.185
'23:02.475',-0.520,-0.200
'23:02.478',-0.525,-0.200
'23:02.481',-0.530,-0.195
'23:02.483',-0.540,-0.220
'23:02.486',-0.545,-0.210
'23:02.489',-0.545,-0.220
'23:02.492',-0.550,-0.215
'23:02.494',-0.550,-0.210
'23:02.497',-0.545,-0.210
'23:02.500',-0.535,-0.190
'23:02.503',-0.535,-0.190
'23:02.506',-0.515,-0.180
'23:02.508',-0.515,-0.195
'23:02.511',-0.520,-0.190
'23:02.514',-0.530,-0.200
'23:02.517',-0.520,-0.205
'23:02.519',-0.520,-0.210
'23:02.522',-0.520,-0.205
'23:02.525',-0.525,-0.220
'23:02.528',-0.510,-0.215
'23:02.531',-0.515,-0.185
'23:02.533',-0.515,-0.185
'23:02.536',-0.505,-0.175
'23:02.539',-0.505,-0.165
'23:02.542',-0.485,-0.155
'23:02.544',-0.490,-0.155
'23:02.547',-0.485,-0.165
'23:02.550',-0.490,-0.155
'23:02.553',-0.485,-0.165
'23:02.556',-0.480,-0.160
'23:02.558',-0.465,-0.150
'23:02.561',-0.465,-0.135
'23:02.564',-0.450,-0.130
'23:02.567',-0.435,-0.125
'23:02.569',-0.410,-0.125
'23:02.572',-0.390,-0.125
'23:02.575',-0.380,-0.140
'23:02.578',-0.385,-0.165
'23:02.581',-0.385,-0.175
'23:02.583',-0.395,-0.185
'23:02.586',-0.410,-0.200
'23:02.589',-0.410,-0.245
'23:02.592',-0.420,-0.255
'23:02.594',-0.430,-0.250
'23:02.597',-0.425,-0.250
'23:02.600',-0.435,-0.230
'23:02.603',-0.445,-0.220
'23:02.606',-0.445,-0.200
'23:02.608',-0.455,-0.200
'23:02.611',-0.465,-0.200
'23:02.614',-0.480,-0.200
'23:02.617',-0.500,-0.205
'23:02.619',-0.515,-0.210
'23:02.622',-0.545,-0.215
'23:02.625',-0.555,-0.205
'23:02.628',-0.560,-0.200
'23:02.631',-0.565,-0.200
'23:02.633',-0.575,-0.180
'23:02.636',-0.575,-0.170
'23:02.639',-0.555,-0.170
'23:02.642',-0.555,-0.180
'23:02.644',-0.560,-0.185
'23:02.647',-0.555,-0.185
'23:02.650',-0.560,-0.205
'23:02.653',-0.565,-0.195
'23:02.656',-0.550,-0.210
'23:02.658',-0.570,-0.200
'23:02.661',-0.575,-0.205
'23:02.664',-0.560,-0.190
'23:02.667',-0.545,-0.195
'23:02.669',-0.540,-0.185
'23:02.672',-0.515,-0.190
'23:02.675',-0.520,-0.195
'23:02.678',-0.495,-0.190
'23:02.681',-0.480,-0.210
'23:02.683',-0.465,-0.210
'23:02.686',-0.440,-0.220
'23:02.689',-0.400,-0.230
'23:02.692',-0.335,-0.220
'23:02.694',-0.240,-0.225
'23:02.697',-0.130,-0.205
'23:02.700',0.015,-0.200
'23:02.703',0.170,-0.200
'23:02.706',0.350,-0.210
'23:02.708',0.540,-0.225
'23:02.711',0.700,-0.260
'23:02.714',0.830,-0.330
'23:02.717',0.935,-0.415
'23:02.719',1.010,-0.505
'23:02.722',1.085,-0.595
'23:02.725',1.185,-0.680
'23:02.728',1.315,-0.775
'23:02.731',1.340,-0.860
'23:02.733',1.235,-0.950
'23:02.736',0.990,-1.030
'23:02.739',0.630,-1.095
'23:02.742',0.225,-1.140
'23:02.744',-0.190,-1.140
'23:02.747',-0.515,-1.115
'23:02.750',-0.730,-1.080
'23:02.753',-0.830,-1.000
'23:02.756',-0.850,-0.930
'23:02.758',-0.820,-0.830
'23:02.761',-0.775,-0.755
'23:02.764',-0.725,-0.680
'23:02.767',-0.690,-0.620
'23:02.769',-0.675,-0.550
'23:02.772',-0.660,-0.510
'23:02.775',-0.640,-0.455
'23:02.778',-0.650,-0.410
'23:02.781',-0.650,-0.365
'23:02.783',-0.665,-0.320
'23:02.786',-0.670,-0.295
'23:02.789',-0.675,-0.280
'23:02.792',-0.685,-0.270
'23:02.794',-0.685,-0.265
'23:02.797',-0.680,-0.250
'23:02.800',-0.680,-0.240
'23:02.803',-0.690,-0.225
'23:02.806',-0.680,-0.205
'23:02.808',-0.675,-0.210
'23:02.811',-0.680,-0.200
'23:02.814',-0.680,-0.225
'23:02.817',-0.685,-0.220
'23:02.819',-0.695,-0.220
'23:02.822',-0.710,-0.225
'23:02.825',-0.715,-0.220
'23:02.828',-0.715,-0.210
'23:02.831',-0.715,-0.215
'23:02.833',-0.715,-0.215
'23:02.836',-0.720,-0.185
'23:02.839',-0.710,-0.190
'23:02.842',-0.710,-0.200
'23:02.844',-0.710,-0.210
'23:02.847',-0.725,-0.210
'23:02.850',-0.720,-0.195
'23:02.853',-0.720,-0.205
'23:02.856',-0.740,-0.225
'23:02.858',-0.750,-0.225
'23:02.861',-0.760,-0.220
'23:02.864',-0.765,-0.200
'23:02.867',-0.760,-0.200
'23:02.869',-0.740,-0.190
'23:02.872',-0.745,-0.190
'23:02.875',-0.740,-0.185
'23:02.878',-0.750,-0.185
'23:02.881',-0.760,-0.200
'23:02.883',-0.765,-0.215
'23:02.886',-0.775,-0.210
'23:02.889',-0.780,-0.210
'23:02.892',-0.805,-0.215
'23:02.894',-0.795,-0.210
'23:02.897',-0.805,-0.185
'23:02.900',-0.800,-0.175
'23:02.903',-0.810,-0.170
'23:02.906',-0.810,-0.175
'23:02.908',-0.815,-0.180
'23:02.911',-0.815,-0.175
'23:02.914',-0.810,-0.175
'23:02.917',-0.825,-0.180
'23:02.919',-0.830,-0.185
'23:02.922',-0.840,-0.200
'23:02.925',-0.840,-0.185
'23:02.928',-0.860,-0.185
'23:02.931',-0.860,-0.185
'23:02.933',-0.850,-0.170
'23:02.936',-0.855,-0.165
'23:02.939',-0.860,-0.150
'23:02.942',-0.865,-0.160
'23:02.944',-0.870,-0.165
'23:02.947',-0.855,-0.155
'23:02.950',-0.875,-0.155
'23:02.953',-0.875,-0.160
'23:02.956',-0.860,-0.160
'23:02.958',-0.870,-0.155
'23:02.961',-0.860,-0.140
'23:02.964',-0.855,-0.135
'23:02.967',-0.850,-0.130
'23:02.969',-0.840,-0.120
'23:02.972',-0.840,-0.125
'23:02.975',-0.815,-0.120
'23:02.978',-0.825,-0.120
'23:02.981',-0.820,-0.130
'23:02.983',-0.805,-0.125
'23:02.986',-0.795,-0.125
'23:02.989',-0.785,-0.130
'23:02.992',-0.775,-0.135
'23:02.994',-0.765,-0.140
'23:02.997',-0.755,-0.130
'23:03.000',-0.740,-0.125
'23:03.003',-0.715,-0.115
'23:03.006',-0.690,-0.120
'23:03.008',-0.675,-0.120
'23:03.011',-0.665,-0.120
'23:03.014',-0.650,-0.135
'23:03.017',-0.635,-0.135
'23:03.019',-0.630,-0.150
'23:03.022',-0.620,-0.170
'23:03.025',-0.615,-0.160
'23:03.028',-0.600,-0.155
'23:03.031',-0.590,-0.155
'23:03.033',-0.575,-0.170
'23:03.036',-0.565,-0.165
'23:03.039',-0.550,-0.160
'23:03.042',-0.540,-0.180
'23:03.044',-0.540,-0.180
'23:03.047',-0.540,-0.200
'23:03.050',-0.535,-0.205
'23:03.053',-0.540,-0.220
'23:03.056',-0.545,-0.215
'23:03.058',-0.550,-0.220
'23:03.061',-0.545,-0.230
'23:03.064',-0.550,-0.225
'23:03.067',-0.555,-0.220
'23:03.069',-0.540,-0.210
'23:03.072',-0.545,-0.205
'23:03.075',-0.535,-0.220
'23:03.078',-0.540,-0.215
'23:03.081',-0.545,-0.235
'23:03.083',-0.550,-0.235
'23:03.086',-0.555,-0.245
'23:03.089',-0.585,-0.255
'23:03.092',-0.580,-0.240
'23:03.094',-0.570,-0.250
'23:03.097',-0.575,-0.240
'23:03.100',-0.570,-0.235
'23:03.103',-0.560,-0.230
'23:03.106',-0.565,-0.240
'23:03.108',-0.585,-0.235
'23:03.111',-0.585,-0.245
'23:03.114',-0.575,-0.245
'23:03.117',-0.585,-0.255
'23:03.119',-0.600,-0.265
'23:03.122',-0.600,-0.270
'23:03.125',-0.610,-0.270
'23:03.128',-0.615,-0.265
'23:03.131',-0.615,-0.250
'23:03.133',-0.605,-0.250
'23:03.136',-0.610,-0.240
'23:03.139',-0.600,-0.235
'23:03.142',-0.610,-0.250
'23:03.144',-0.615,-0.250
'23:03.147',-0.615,-0.250
'23:03.150',-0.620,-0.260
'23:03.153',-0.625,-0.280
'23:03.156',-0.630,-0.285
'23:03.158',-0.635,-0.290
'23:03.161',-0.625,-0.275
'23:03.164',-0.620,-0.265
'23:03.167',-0.600,-0.255
'23:03.169',-0.600,-0.260
'23:03.172',-0.585,-0.265
'23:03.175',-0.590,-0.275
'23:03.178',-0.605,-0.270
'23:03.181',-0.615,-0.285
'23:03.183',-0.635,-0.290
'23:03.186',-0.655,-0.280
'23:03.189',-0.645,-0.300
'23:03.192',-0.620,-0.295
'23:03.194',-0.580,-0.295
'23:03.197',-0.525,-0.310
'23:03.200',-0.420,-0.350
'23:03.203',-0.330,-0.415
'23:03.206',-0.200,-0.490
'23:03.208',-0.075,-0.620
'23:03.211',0.025,-0.765
'23:03.214',0.110,-0.900
'23:03.217',0.160,-1.010
'23:03.219',0.190,-1.100
'23:03.222',0.180,-1.165
'23:03.225',0.155,-1.190
'23:03.228',0.070,-1.215
'23:03.231',-0.040,-1.215
'23:03.233',-0.165,-1.190
'23:03.236',-0.300,-1.140
'23:03.239',-0.385,-1.100
'23:03.242',-0.480,-1.085
'23:03.244',-0.570,-1.075
'23:03.247',-0.680,-1.080
'23:03.250',-0.835,-1.080
'23:03.253',-1.000,-1.075
'23:03.256',-1.125,-1.070
'23:03.258',-1.245,-1.040
'23:03.261',-1.295,-1.020
'23:03.264',-1.305,-0.975
'23:03.267',-1.285,-0.940
'23:03.269',-1.265,-0.895
'23:03.272',-1.225,-0.850
'23:03.275',-1.175,-0.800
'23:03.278',-1.165,-0.760
'23:03.281',-1.160,-0.720
'23:03.283',-1.170,-0.680
'23:03.286',-1.160,-0.635
'23:03.289',-1.160,-0.585
'23:03.292',-1.150,-0.535
'23:03.294',-1.125,-0.490
'23:03.297',-1.090,-0.430
'23:03.300',-1.055,-0.380
'23:03.303',-1.005,-0.340
'23:03.306',-0.955,-0.310
'23:03.308',-0.910,-0.275
'23:03.311',-0.870,-0.260
'23:03.314',-0.830,-0.260
'23:03.317',-0.805,-0.240
'23:03.319',-0.775,-0.225
'23:03.322',-0.735,-0.195
'23:03.325',-0.725,-0.165
'23:03.328',-0.715,-0.150
'23:03.331',-0.705,-0.105
'23:03.333',-0.700,-0.090
'23:03.336',-0.685,-0.060
'23:03.339',-0.680,-0.055
'23:03.342',-0.675,-0.045
'23:03.344',-0.685,-0.050
'23:03.347',-0.680,-0.055
'23:03.350',-0.680,-0.045
'23:03.353',-0.685,-0.040
'23:03.356',-0.685,-0.040
'23:03.358',-0.695,-0.040
'23:03.361',-0.695,-0.030
'23:03.364',-0.695,-0.020
'23:03.367',-0.700,-0.010
'23:03.369',-0.705,0.010
'23:03.372',-0.680,0.020
'23:03.375',-0.685,0.020
'23:03.378',-0.700,0.025
'23:03.381',-0.690,0.020
'23:03.383',-0.700,0.025
'23:03.386',-0.690,0.025
'23:03.389',-0.705,0.025
'23:03.392',-0.705,0.035
'23:03.394',-0.700,0.045
'23:03.397',-0.695,0.065
'23:03.400',-0.695,0.085
'23:03.403',-0.690,0.095
'23:03.406',-0.680,0.120
'23:03.408',-0.675,0.125
'23:03.411',-0.680,0.135
'23:03.414',-0.685,0.135
'23:03.417',-0.695,0.130
'23:03.419',-0.705,0.130
'23:03.422',-0.705,0.150
'23:03.425',-0.705,0.165
'23:03.428',-0.700,0.175
'23:03.431',-0.690,0.195
'23:03.433',-0.680,0.205
'23:03.436',-0.660,0.235
'23:03.439',-0.645,0.245
'23:03.442',-0.630,0.250
'23:03.444',-0.610,0.250
'23:03.447',-0.605,0.245
'23:03.450',-0.595,0.235
'23:03.453',-0.580,0.245
'23:03.456',-0.560,0.250
'23:03.458',-0.540,0.255
'23:03.461',-0.515,0.260
'23:03.464',-0.495,0.265
'23:03.467',-0.460,0.270
'23:03.469',-0.415,0.280
'23:03.472',-0.395,0.280
'23:03.475',-0.360,0.275
'23:03.478',-0.345,0.275
'23:03.481',-0.315,0.255
'23:03.483',-0.300,0.230
'23:03.486',-0.290,0.220
'23:03.489',-0.275,0.210
'23:03.492',-0.260,0.190
'23:03.494',-0.240,0.185
'23:03.497',-0.210,0.180
'23:03.500',-0.195,0.155
'23:03.503',-0.160,0.150
'23:03.506',-0.145,0.135
'23:03.508',-0.135,0.115
'23:03.511',-0.135,0.095
'23:03.514',-0.125,0.070
'23:03.517',-0.145,0.040
'23:03.519',-0.140,0.010
'23:03.522',-0.155,0.005
'23:03.525',-0.160,-0.020
'23:03.528',-0.170,-0.025
'23:03.531',-0.180,-0.030
'23:03.533',-0.185,-0.040
'23:03.536',-0.185,-0.050
'23:03.539',-0.200,-0.055
'23:03.542',-0.205,-0.065
'23:03.544',-0.225,-0.095
'23:03.547',-0.230,-0.105
'23:03.550',-0.265,-0.125
'23:03.553',-0.265,-0.140
'23:03.556',-0.310,-0.155
'23:03.558',-0.335,-0.160
'23:03.561',-0.345,-0.165
'23:03.564',-0.360,-0.160
'23:03.567',-0.360,-0.160
'23:03.569',-0.370,-0.165
'23:03.572',-0.400,-0.155
'23:03.575',-0.405,-0.160
'23:03.578',-0.435,-0.175
'23:03.581',-0.435,-0.190
'23:03.583',-0.460,-0.190
'23:03.586',-0.455,-0.195
'23:03.589',-0.475,-0.195
'23:03.592',-0.490,-0.195
'23:03.594',-0.500,-0.195
'23:03.597',-0.515,-0.190
'23:03.600',-0.520,-0.175
'23:03.603',-0.530,-0.170
'23:03.606',-0.515,-0.165
'23:03.608',-0.515,-0.175
'23:03.611',-0.525,-0.175
'23:03.614',-0.525,-0.180
'23:03.617',-0.540,-0.180
'23:03.619',-0.550,-0.185
'23:03.622',-0.565,-0.190
'23:03.625',-0.580,-0.200
'23:03.628',-0.590,-0.190
'23:03.631',-0.580,-0.180
'23:03.633',-0.580,-0.190
'23:03.636',-0.580,-0.170
'23:03.639',-0.575,-0.160
'23:03.642',-0.575,-0.175
'23:03.644',-0.580,-0.180
'23:03.647',-0.570,-0.180
'23:03.650',-0.565,-0.195
'23:03.653',-0.570,-0.195
'23:03.656',-0.585,-0.200
'23:03.658',-0.580,-0.210
'23:03.661',-0.580,-0.190
'23:03.664',-0.575,-0.190
'23:03.667',-0.570,-0.190
'23:03.669',-0.570,-0.180
'23:03.672',-0.560,-0.175
'23:03.675',-0.555,-0.180
'23:03.678',-0.565,-0.185
'23:03.681',-0.560,-0.195
'23:03.683',-0.560,-0.205
'23:03.686',-0.565,-0.195
'23:03.689',-0.575,-0.190
'23:03.692',-0.575,-0.210
'23:03.694',-0.575,-0.200
'23:03.697',-0.575,-0.200
'23:03.700',-0.570,-0.205
'23:03.703',-0.570,-0.190
'23:03.706',-0.565,-0.195
'23:03.708',-0.560,-0.190
'23:03.711',-0.565,-0.200
'23:03.714',-0.575,-0.210
'23:03.717',-0.575,-0.215
'23:03.719',-0.580,-0.220
'23:03.722',-0.580,-0.225
'23:03.725',-0.580,-0.225
'23:03.728',-0.580,-0.230
'23:03.731',-0.575,-0.225
'23:03.733',-0.575,-0.210
'23:03.736',-0.575,-0.210
'23:03.739',-0.565,-0.200
'23:03.742',-0.570,-0.200
'23:03.744',-0.565,-0.210
'23:03.747',-0.570,-0.215
'23:03.750',-0.580,-0.220
'23:03.753',-0.585,-0.230
'23:03.756',-0.600,-0.220
'23:03.758',-0.610,-0.230
'23:03.761',-0.605,-0.225
'23:03.764',-0.595,-0.225
'23:03.767',-0.580,-0.210
'23:03.769',-0.590,-0.220
'23:03.772',-0.570,-0.205
'23:03.775',-0.565,-0.200
'23:03.778',-0.565,-0.215
'23:03.781',-0.565,-0.230
'23:03.783',-0.575,-0.225
'23:03.786',-0.585,-0.240
'23:03.789',-0.595,-0.240
'23:03.792',-0.595,-0.235
'23:03.794',-0.600,-0.235
'23:03.797',-0.600,-0.220
'23:03.800',-0.600,-0.215
'23:03.803',-0.600,-0.215
'23:03.806',-0.585,-0.205
'23:03.808',-0.585,-0.200
'23:03.811',-0.575,-0.210
'23:03.814',-0.590,-0.225
'23:03.817',-0.590,-0.230
'23:03.819',-0.590,-0.230
'23:03.822',-0.605,-0.240
'23:03.825',-0.615,-0.240
'23:03.828',-0.610,-0.240
'23:03.831',-0.605,-0.235
'23:03.833',-0.590,-0.220
'23:03.836',-0.585,-0.230
'23:03.839',-0.585,-0.205
'23:03.842',-0.575,-0.215
'23:03.844',-0.580,-0.220
'23:03.847',-0.580,-0.220
'23:03.850',-0.590,-0.220
'23:03.853',-0.600,-0.230
'23:03.856',-0.605,-0.240
'23:03.858',-0.615,-0.235
'23:03.861',-0.610,-0.235
'23:03.864',-0.605,-0.225
'23:03.867',-0.595,-0.220
'23:03.869',-0.590,-0.220
'23:03.872',-0.585,-0.210
'23:03.875',-0.575,-0.220
'23:03.878',-0.580,-0.225
'23:03.881',-0.585,-0.220
'23:03.883',-0.585,-0.240
'23:03.886',-0.580,-0.235
'23:03.889',-0.585,-0.235
'23:03.892',-0.585,-0.230
'23:03.894',-0.575,-0.225
'23:03.897',-0.575,-0.220
'23:03.900',-0.575,-0.220
'23:03.903',-0.560,-0.215
'23:03.906',-0.550,-0.210
'23:03.908',-0.550,-0.205
'23:03.911',-0.555,-0.195
'23:03.914',-0.555,-0.200
'23:03.917',-0.545,-0.195
'23:03.919',-0.555,-0.195
'23:03.922',-0.550,-0.200
'23:03.925',-0.545,-0.190
'23:03.928',-0.545,-0.190
'23:03.931',-0.540,-0.170
'23:03.933',-0.525,-0.165
'23:03.936',-0.500,-0.135
'23:03.939',-0.485,-0.125
'23:03.942',-0.480,-0.130
'23:03.944',-0.470,-0.150
'23:03.947',-0.450,-0.175
'23:03.950',-0.450,-0.180
'23:03.953',-0.455,-0.200
'23:03.956',-0.455,-0.225
'23:03.958',-0.465,-0.235
'23:03.961',-0.470,-0.240
'23:03.964',-0.470,-0.265
'23:03.967',-0.490,-0.270
'23:03.969',-0.490,-0.270
'23:03.972',-0.495,-0.265
'23:03.975',-0.490,-0.265
'23:03.978',-0.505,-0.270
'23:03.981',-0.515,-0.260
'23:03.983',-0.535,-0.245
'23:03.986',-0.545,-0.250
'23:03.989',-0.565,-0.250
'23:03.992',-0.575,-0.235
'23:03.994',-0.575,-0.225
'23:03.997',-0.600,-0.230
'23:04.000',-0.605,-0.205
'23:04.003',-0.620,-0.210
'23:04.006',-0.635,-0.200
'23:04.008',-0.645,-0.195
'23:04.011',-0.650,-0.210
'23:04.014',-0.650,-0.195
'23:04.017',-0.660,-0.210
'23:04.019',-0.660,-0.215
'23:04.022',-0.655,-0.225
'23:04.025',-0.655,-0.225
'23:04.028',-0.650,-0.215
'23:04.031',-0.640,-0.210
'23:04.033',-0.640,-0.200
'23:04.036',-0.635,-0.190
'23:04.039',-0.625,-0.190
'23:04.042',-0.615,-0.190
'23:04.044',-0.620,-0.200
'23:04.047',-0.620,-0.215
'23:04.050',-0.620,-0.230
'23:04.053',-0.630,-0.225
'23:04.056',-0.635,-0.235
'23:04.058',-0.635,-0.240
'23:04.061',-0.615,-0.225
'23:04.064',-0.600,-0.230
'23:04.067',-0.555,-0.215
'23:04.069',-0.535,-0.215
'23:04.072',-0.485,-0.215
'23:04.075',-0.425,-0.225
'23:04.078',-0.360,-0.230
'23:04.081',-0.285,-0.240
'23:04.083',-0.200,-0.235
'23:04.086',-0.095,-0.255
'23:04.089',0.015,-0.265
'23:04.092',0.160,-0.300
'23:04.094',0.325,-0.310
'23:04.097',0.490,-0.345
'23:04.100',0.640,-0.395
'23:04.103',0.780,-0.485
'23:04.106',0.920,-0.590
'23:04.108',1.070,-0.700
'23:04.111',1.235,-0.820
'23:04.114',1.365,-0.950
'23:04.117',1.365,-1.075
'23:04.119',1.180,-1.195
'23:04.122',0.840,-1.300
'23:04.125',0.380,-1.345
'23:04.128',-0.095,-1.360
'23:04.131',-0.505,-1.320
'23:04.133',-0.775,-1.245
'23:04.136',-0.930,-1.150
'23:04.139',-0.945,-1.035
'23:04.142',-0.900,-0.930
'23:04.144',-0.830,-0.860
'23:04.147',-0.780,-0.780
'23:04.150',-0.750,-0.730
'23:04.153',-0.740,-0.660
'23:04.156',-0.740,-0.595
'23:04.158',-0.745,-0.520
'23:04.161',-0.745,-0.445
'23:04.164',-0.760,-0.385
'23:04.167',-0.760,-0.315
'23:04.169',-0.760,-0.280
'23:04.172',-0.760,-0.245
'23:04.175',-0.750,-0.245
'23:04.178',-0.750,-0.245
'23:04.181',-0.750,-0.245
'23:04.183',-0.770,-0.240
'23:04.186',-0.770,-0.240
'23:04.189',-0.790,-0.235
'23:04.192',-0.800,-0.230
'23:04.194',-0.795,-0.220
'23:04.197',-0.800,-0.210
'23:04.200',-0.790,-0.200
'23:04.203',-0.775,-0.200
'23:04.206',-0.775,-0.175
'23:04.208',-0.770,-0.180
'23:04.211',-0.775,-0.195
'23:04.214',-0.780,-0.195
'23:04.217',-0.775,-0.200
'23:04.219',-0.795,-0.200
'23:04.222',-0.800,-0.200
'23:04.225',-0.820,-0.200
'23:04.228',-0.830,-0.195
'23:04.231',-0.825,-0.190
'23:04.233',-0.825,-0.200
'23:04.236',-0.825,-0.180
'23:04.239',-0.820,-0.175
'23:04.242',-0.805,-0.180
'23:04.244',-0.820,-0.185
'23:04.247',-0.825,-0.185
'23:04.250',-0.845,-0.200
'23:04.253',-0.850,-0.195
'23:04.256',-0.855,-0.200
'23:04.258',-0.860,-0.195
'23:04.261',-0.865,-0.195
'23:04.264',-0.860,-0.185
'23:04.267',-0.865,-0.180
'23:04.269',-0.860,-0.170
'23:04.272',-0.865,-0.165
'23:04.275',-0.875,-0.160
'23:04.278',-0.875,-0.170
'23:04.281',-0.890,-0.165
'23:04.283',-0.915,-0.180
'23:04.286',-0.915,-0.180
'23:04.289',-0.920,-0.185
'23:04.292',-0.915,-0.190
'23:04.294',-0.935,-0.165
'23:04.297',-0.925,-0.160
'23:04.300',-0.935,-0.170
'23:04.303',-0.930,-0.145
'23:04.306',-0.930,-0.135
'23:04.308',-0.930,-0.125
'23:04.311',-0.940,-0.140
'23:04.314',-0.935,-0.130
'23:04.317',-0.950,-0.145
'23:04.319',-0.965,-0.135
'23:04.322',-0.970,-0.140
'23:04.325',-0.975,-0.145
'23:04.328',-0.975,-0.125
'23:04.331',-0.965,-0.120
'23:04.333',-0.935,-0.115
'23:04.336',-0.925,-0.110
'23:04.339',-0.920,-0.085
'23:04.342',-0.905,-0.085
'23:04.344',-0.905,-0.095
'23:04.347',-0.890,-0.100
'23:04.350',-0.895,-0.105
'23:04.353',-0.890,-0.100
'23:04.356',-0.875,-0.110
'23:04.358',-0.870,-0.115
'23:04.361',-0.870,-0.105
'23:04.364',-0.840,-0.095
'23:04.367',-0.820,-0.095
'23:04.369',-0.790,-0.090
'23:04.372',-0.780,-0.080
'23:04.375',-0.755,-0.090
'23:04.378',-0.745,-0.100
'23:04.381',-0.730,-0.110
'23:04.383',-0.715,-0.125
'23:04.386',-0.710,-0.130
'23:04.389',-0.705,-0.135
'23:04.392',-0.700,-0.150
'23:04.394',-0.680,-0.145
'23:04.397',-0.665,-0.145
'23:04.400',-0.650,-0.145
'23:04.403',-0.645,-0.140
'23:04.406',-0.630,-0.145
'23:04.408',-0.615,-0.150
'23:04.411',-0.615,-0.155
'23:04.414',-0.615,-0.175
'23:04.417',-0.625,-0.175
'23:04.419',-0.635,-0.190
'23:04.422',-0.640,-0.195
'23:04.425',-0.635,-0.215
'23:04.428',-0.625,-0.200
'23:04.431',-0.620,-0.200
'23:04.433',-0.615,-0.190
'23:04.436',-0.600,-0.200
'23:04.439',-0.590,-0.195
'23:04.442',-0.585,-0.185
'23:04.444',-0.590,-0.200
'23:04.447',-0.605,-0.210
'23:04.450',-0.600,-0.215
'23:04.453',-0.620,-0.225
'23:04.456',-0.620,-0.225
'23:04.458',-0.625,-0.220
'23:04.461',-0.630,-0.220
'23:04.464',-0.630,-0.220
'23:04.467',-0.610,-0.220
'23:04.469',-0.605,-0.215
'23:04.472',-0.595,-0.215
'23:04.475',-0.605,-0.200
'23:04.478',-0.610,-0.230
'23:04.481',-0.605,-0.235
'23:04.483',-0.615,-0.225
'23:04.486',-0.630,-0.245
'23:04.489',-0.635,-0.240
'23:04.492',-0.630,-0.250
'23:04.494',-0.625,-0.240
'23:04.497',-0.655,-0.240
'23:04.500',-0.645,-0.230
'23:04.503',-0.640,-0.230
'23:04.506',-0.630,-0.220
'23:04.508',-0.625,-0.235
'23:04.511',-0.635,-0.225
'23:04.514',-0.645,-0.230
'23:04.517',-0.660,-0.240
'23:04.519',-0.660,-0.250
'23:04.522',-0.680,-0.260
'23:04.525',-0.675,-0.265
'23:04.528',-0.660,-0.255
'23:04.531',-0.670,-0.250
'23:04.533',-0.665,-0.250
'23:04.536',-0.660,-0.235
'23:04.539',-0.660,-0.235
'23:04.542',-0.665,-0.225
'23:04.544',-0.680,-0.240
'23:04.547',-0.665,-0.245
'23:04.550',-0.660,-0.265
'23:04.553',-0.650,-0.270
'23:04.556',-0.660,-0.275
'23:04.558',-0.655,-0.270
'23:04.561',-0.660,-0.275
'23:04.564',-0.665,-0.280
'23:04.567',-0.685,-0.275
'23:04.569',-0.680,-0.255
'23:04.572',-0.680,-0.235
'23:04.575',-0.660,-0.245
'23:04.578',-0.645,-0.255
'23:04.581',-0.575,-0.295
'23:04.583',-0.495,-0.355
'23:04.586',-0.390,-0.435
'23:04.589',-0.250,-0.550
'23:04.592',-0.125,-0.700
'23:04.594',-0.030,-0.845
'23:04.597',0.050,-0.965
'23:04.600',0.095,-1.060
'23:04.603',0.120,-1.130
'23:04.606',0.120,-1.165
'23:04.608',0.095,-1.190
'23:04.611',0.020,-1.225
'23:04.614',-0.095,-1.210
'23:04.617',-0.240,-1.200
'23:04.619',-0.370,-1.155
'23:04.622',-0.470,-1.130
'23:04.625',-0.565,-1.100
'23:04.628',-0.640,-1.065
'23:04.631',-0.725,-1.040
'23:04.633',-0.825,-1.045
'23:04.636',-0.945,-1.035
'23:04.639',-1.080,-1.010
'23:04.642',-1.160,-0.985
'23:04.644',-1.250,-0.970
'23:04.647',-1.280,-0.950
'23:04.650',-1.305,-0.940
'23:04.653',-1.295,-0.915
'23:04.656',-1.270,-0.895
'23:04.658',-1.250,-0.845
'23:04.661',-1.215,-0.810
'23:04.664',-1.185,-0.745
'23:04.667',-1.170,-0.700
'23:04.669',-1.175,-0.630
'23:04.672',-1.160,-0.580
'23:04.675',-1.145,-0.525
'23:04.678',-1.135,-0.490
'23:04.681',-1.110,-0.465
'23:04.683',-1.090,-0.410
'23:04.686',-1.070,-0.385
'23:04.689',-1.055,-0.360
'23:04.692',-1.030,-0.325
'23:04.694',-0.995,-0.295
'23:04.697',-0.960,-0.250
'23:04.700',-0.910,-0.240
'23:04.703',-0.870,-0.220
'23:04.706',-0.815,-0.190
'23:04.708',-0.765,-0.165
'23:04.711',-0.740,-0.140
'23:04.714',-0.705,-0.110
'23:04.717',-0.705,-0.095
'23:04.719',-0.695,-0.070
'23:04.722',-0.710,-0.055
'23:04.725',-0.690,-0.050
'23:04.728',-0.700,-0.025
'23:04.731',-0.695,-0.015
'23:04.733',-0.690,-0.015
'23:04.736',-0.680,0.005
'23:04.739',-0.670,0.010
'23:04.742',-0.675,0.020
'23:04.744',-0.670,0.015
'23:04.747',-0.660,0.025
'23:04.750',-0.660,0.020
'23:04.753',-0.670,0.025
'23:04.756',-0.680,0.030
'23:04.758',-0.685,0.035
'23:04.761',-0.690,0.040
'23:04.764',-0.695,0.050
'23:04.767',-0.685,0.075
'23:04.769',-0.670,0.075
'23:04.772',-0.660,0.090
'23:04.775',-0.650,0.100
'23:04.778',-0.650,0.105
'23:04.781',-0.650,0.105
'23:04.783',-0.655,0.105
'23:04.786',-0.675,0.115
'23:04.789',-0.670,0.120
'23:04.792',-0.680,0.140
'23:04.794',-0.670,0.150
'23:04.797',-0.680,0.170
'23:04.800',-0.660,0.190
'23:04.803',-0.655,0.210
'23:04.806',-0.655,0.220
'23:04.808',-0.630,0.235
'23:04.811',-0.630,0.240
'23:04.814',-0.635,0.245
'23:04.817',-0.625,0.240
'23:04.819',-0.610,0.255
'23:04.822',-0.610,0.265
'23:04.825',-0.610,0.260
'23:04.828',-0.595,0.285
'23:04.831',-0.590,0.285
'23:04.833',-0.560,0.300
'23:04.836',-0.525,0.315
'23:04.839',-0.490,0.325
'23:04.842',-0.470,0.330
'23:04.844',-0.435,0.320
'23:04.847',-0.415,0.325
'23:04.850',-0.400,0.305
'23:04.853',-0.385,0.315
'23:04.856',-0.380,0.300
'23:04.858',-0.350,0.295
'23:04.861',-0.345,0.295
'23:04.864',-0.305,0.300
'23:04.867',-0.275,0.295
'23:04.869',-0.250,0.290
'23:04.872',-0.205,0.290
'23:04.875',-0.175,0.280
'23:04.878',-0.145,0.250
'23:04.881',-0.135,0.245
'23:04.883',-0.130,0.220
'23:04.886',-0.120,0.200
'23:04.889',-0.115,0.185
'23:04.892',-0.115,0.155
'23:04.894',-0.100,0.155
'23:04.897',-0.095,0.135
'23:04.900',-0.080,0.130
'23:04.903',-0.065,0.120
'23:04.906',-0.055,0.110
'23:04.908',-0.060,0.110
'23:04.911',-0.065,0.080
'23:04.914',-0.060,0.055
'23:04.917',-0.080,0.025
'23:04.919',-0.100,0.010
'23:04.922',-0.120,-0.020
'23:04.925',-0.150,-0.030
'23:04.928',-0.165,-0.035
'23:04.931',-0.185,-0.045
'23:04.933',-0.195,-0.055
'23:04.936',-0.215,-0.065
'23:04.939',-0.230,-0.060
'23:04.942',-0.235,-0.075
'23:04.944',-0.255,-0.095
'23:04.947',-0.295,-0.095
'23:04.950',-0.310,-0.110
'23:04.953',-0.335,-0.125
'23:04.956',-0.360,-0.120
'23:04.958',-0.390,-0.125
'23:04.961',-0.405,-0.120
'23:04.964',-0.405,-0.130
'23:04.967',-0.415,-0.120
'23:04.969',-0.445,-0.110
'23:04.972',-0.450,-0.105
'23:04.975',-0.460,-0.110
'23:04.978',-0.465,-0.115
'23:04.981',-0.485,-0.115
'23:04.983',-0.480,-0.130
'23:04.986',-0.495,-0.135
'23:04.989',-0.520,-0.130
'23:04.992',-0.520,-0.155
'23:04.994',-0.520,-0.120
'23:04.997',-0.520,-0.125
'23:05.000',-0.515,-0.115
'23:05.003',-0.530,-0.115
'23:05.006',-0.520,-0.095
'23:05.008',-0.510,-0.105
'23:05.011',-0.515,-0.105
'23:05.014',-0.515,-0.105
'23:05.017',-0.530,-0.125
'23:05.019',-0.525,-0.120
'23:05.022',-0.530,-0.130
'23:05.025',-0.535,-0.125
'23:05.028',-0.540,-0.120
'23:05.031',-0.530,-0.120
'23:05.033',-0.525,-0.115
'23:05.036',-0.525,-0.110
'23:05.039',-0.520,-0.090
'23:05.042',-0.510,-0.105
'23:05.044',-0.510,-0.105
'23:05.047',-0.515,-0.115
'23:05.050',-0.515,-0.125
'23:05.053',-0.525,-0.135
'23:05.056',-0.530,-0.130
'23:05.058',-0.555,-0.140
'23:05.061',-0.540,-0.135
'23:05.064',-0.525,-0.125
'23:05.067',-0.525,-0.125
'23:05.069',-0.525,-0.130
'23:05.072',-0.520,-0.115
'23:05.075',-0.525,-0.120
'23:05.078',-0.530,-0.125
'23:05.081',-0.525,-0.130
'23:05.083',-0.530,-0.145
'23:05.086',-0.535,-0.135
'23:05.089',-0.530,-0.145
'23:05.092',-0.550,-0.155
'23:05.094',-0.540,-0.145
'23:05.097',-0.545,-0.140
'23:05.100',-0.545,-0.140
'23:05.103',-0.530,-0.135
'23:05.106',-0.530,-0.125
'23:05.108',-0.525,-0.125
'23:05.111',-0.545,-0.140
'23:05.114',-0.535,-0.130
'23:05.117',-0.540,-0.145
'23:05.119',-0.540,-0.150
'23:05.122',-0.550,-0.155
'23:05.125',-0.545,-0.150
'23:05.128',-0.555,-0.145
'23:05.131',-0.555,-0.135
'23:05.133',-0.560,-0.145
'23:05.136',-0.560,-0.145
'23:05.139',-0.545,-0.130
'23:05.142',-0.530,-0.125
'23:05.144',-0.525,-0.135
'23:05.147',-0.540,-0.140
'23:05.150',-0.550,-0.145
'23:05.153',-0.560,-0.150
'23:05.156',-0.560,-0.160
'23:05.158',-0.565,-0.165
'23:05.161',-0.560,-0.165
'23:05.164',-0.565,-0.155
'23:05.167',-0.550,-0.150
'23:05.169',-0.560,-0.150
'23:05.172',-0.545,-0.125
'23:05.175',-0.565,-0.130
'23:05.178',-0.565,-0.140
'23:05.181',-0.550,-0.150
'23:05.183',-0.560,-0.150
'23:05.186',-0.555,-0.150
'23:05.189',-0.550,-0.150
'23:05.192',-0.575,-0.155
'23:05.194',-0.565,-0.150
'23:05.197',-0.560,-0.140
'23:05.200',-0.565,-0.135
'23:05.203',-0.555,-0.130
'23:05.206',-0.550,-0.115
'23:05.208',-0.545,-0.120
'23:05.211',-0.545,-0.130
'23:05.214',-0.550,-0.135
'23:05.217',-0.550,-0.145
'23:05.219',-0.555,-0.140
'23:05.222',-0.560,-0.150
'23:05.225',-0.575,-0.160
'23:05.228',-0.570,-0.155
'23:05.231',-0.560,-0.150
'23:05.233',-0.560,-0.135
'23:05.236',-0.545,-0.120
'23:05.239',-0.540,-0.115
'23:05.242',-0.520,-0.115
'23:05.244',-0.525,-0.130
'23:05.247',-0.515,-0.125
'23:05.250',-0.520,-0.125
'23:05.253',-0.520,-0.135
'23:05.256',-0.510,-0.140
'23:05.258',-0.525,-0.135
'23:05.261',-0.525,-0.125
'23:05.264',-0.520,-0.115
'23:05.267',-0.505,-0.095
'23:05.269',-0.500,-0.085
'23:05.272',-0.495,-0.075
'23:05.275',-0.470,-0.070
'23:05.278',-0.465,-0.070
'23:05.281',-0.470,-0.080
'23:05.283',-0.465,-0.075
'23:05.286',-0.460,-0.080
'23:05.289',-0.455,-0.070
'23:05.292',-0.460,-0.080
'23:05.294',-0.455,-0.070
'23:05.297',-0.445,-0.080
'23:05.300',-0.430,-0.085
'23:05.303',-0.410,-0.095
'23:05.306',-0.410,-0.105
'23:05.308',-0.395,-0.115
'23:05.311',-0.400,-0.150
'23:05.314',-0.405,-0.160
'23:05.317',-0.415,-0.175
'23:05.319',-0.435,-0.190
'23:05.322',-0.455,-0.190
'23:05.325',-0.480,-0.180
'23:05.328',-0.490,-0.160
'23:05.331',-0.500,-0.140
'23:05.333',-0.500,-0.125
'23:05.336',-0.500,-0.110
'23:05.339',-0.515,-0.110
'23:05.342',-0.515,-0.100
'23:05.344',-0.540,-0.110
'23:05.347',-0.560,-0.115
'23:05.350',-0.575,-0.120
'23:05.353',-0.580,-0.120
'23:05.356',-0.600,-0.120
'23:05.358',-0.605,-0.125
'23:05.361',-0.600,-0.105
'23:05.364',-0.580,-0.105
'23:05.367',-0.570,-0.105
'23:05.369',-0.565,-0.105
'23:05.372',-0.575,-0.100
'23:05.375',-0.550,-0.105
'23:05.378',-0.550,-0.095
'23:05.381',-0.555,-0.115
'23:05.383',-0.555,-0.110
'23:05.386',-0.565,-0.110
'23:05.389',-0.570,-0.110
'23:05.392',-0.575,-0.130
'23:05.394',-0.555,-0.115
'23:05.397',-0.550,-0.120
'23:05.400',-0.540,-0.110
'23:05.403',-0.510,-0.110
'23:05.406',-0.485,-0.100
'23:05.408',-0.460,-0.100
'23:05.411',-0.405,-0.115
'23:05.414',-0.360,-0.120
'23:05.417',-0.305,-0.120
'23:05.419',-0.235,-0.140
'23:05.422',-0.135,-0.135
'23:05.425',-0.030,-0.130
'23:05.428',0.100,-0.120
'23:05.431',0.245,-0.130
'23:05.433',0.420,-0.135
'23:05.436',0.580,-0.155
'23:05.439',0.720,-0.200
'23:05.442',0.820,-0.245
'23:05.444',0.895,-0.340
'23:05.447',0.975,-0.435
'23:05.450',1.070,-0.515
'23:05.453',1.170,-0.615
'23:05.456',1.265,-0.695
'23:05.458',1.285,-0.795
'23:05.461',1.205,-0.865
'23:05.464',0.975,-0.945
'23:05.467',0.660,-1.000
'23:05.469',0.290,-1.030
'23:05.472',-0.085,-1.050
'23:05.475',-0.395,-1.025
'23:05.478',-0.645,-0.990
'23:05.481',-0.780,-0.940
'23:05.483',-0.845,-0.875
'23:05.486',-0.845,-0.795
'23:05.489',-0.820,-0.705
'23:05.492',-0.775,-0.635
'23:05.494',-0.750,-0.560
'23:05.497',-0.725,-0.500
'23:05.500',-0.680,-0.425
'23:05.503',-0.660,-0.345
'23:05.506',-0.665,-0.295
'23:05.508',-0.665,-0.235
'23:05.511',-0.660,-0.200
'23:05.514',-0.670,-0.175
'23:05.517',-0.690,-0.155
'23:05.519',-0.695,-0.150
'23:05.522',-0.705,-0.150
'23:05.525',-0.710,-0.145
'23:05.528',-0.710,-0.145
'23:05.531',-0.720,-0.135
'23:05.533',-0.715,-0.115
'23:05.536',-0.700,-0.110
'23:05.539',-0.705,-0.095
'23:05.542',-0.695,-0.100
'23:05.544',-0.710,-0.100
'23:05.547',-0.700,-0.105
'23:05.550',-0.725,-0.110
'23:05.553',-0.715,-0.115
'23:05.556',-0.730,-0.130
'23:05.558',-0.735,-0.115
'23:05.561',-0.745,-0.110
'23:05.564',-0.760,-0.100
'23:05.567',-0.750,-0.095
'23:05.569',-0.745,-0.090
'23:05.572',-0.730,-0.090
'23:05.575',-0.720,-0.085
'23:05.578',-0.740,-0.085
'23:05.581',-0.745,-0.085
'23:05.583',-0.755,-0.100
'23:05.586',-0.785,-0.110
'23:05.589',-0.785,-0.100
'23:05.592',-0.795,-0.100
'23:05.594',-0.800,-0.105
'23:05.597',-0.795,-0.105
'23:05.600',-0.800,-0.080
'23:05.603',-0.795,-0.075
'23:05.606',-0.795,-0.075
'23:05.608',-0.780,-0.075
'23:05.611',-0.785,-0.085
'23:05.614',-0.790,-0.070
'23:05.617',-0.805,-0.090
'23:05.619',-0.810,-0.095
'23:05.622',-0.825,-0.105
'23:05.625',-0.835,-0.095
'23:05.628',-0.840,-0.085
'23:05.631',-0.840,-0.080
'23:05.633',-0.845,-0.060
'23:05.636',-0.850,-0.060
'23:05.639',-0.840,-0.055
'23:05.642',-0.845,-0.060
'23:05.644',-0.840,-0.065
'23:05.647',-0.850,-0.065
'23:05.650',-0.865,-0.065
'23:05.653',-0.880,-0.085
'23:05.656',-0.885,-0.090
'23:05.658',-0.890,-0.085
'23:05.661',-0.890,-0.075
'23:05.664',-0.890,-0.075
'23:05.667',-0.885,-0.055
'23:05.669',-0.880,-0.045
'23:05.672',-0.875,-0.040
'23:05.675',-0.875,-0.030
'23:05.678',-0.880,-0.045
'23:05.681',-0.865,-0.035
'23:05.683',-0.860,-0.050
'23:05.686',-0.860,-0.050
'23:05.689',-0.880,-0.055
'23:05.692',-0.870,-0.055
'23:05.694',-0.865,-0.040
'23:05.697',-0.855,-0.040
'23:05.700',-0.840,-0.035
'23:05.703',-0.835,-0.010
'23:05.706',-0.810,-0.020
'23:05.708',-0.785,-0.015
'23:05.711',-0.780,-0.020
'23:05.714',-0.765,-0.020
'23:05.717',-0.770,-0.025
'23:05.719',-0.760,-0.035
'23:05.722',-0.735,-0.040
'23:05.725',-0.740,-0.055
'23:05.728',-0.705,-0.045
'23:05.731',-0.695,-0.045
'23:05.733',-0.655,-0.045
'23:05.736',-0.635,-0.040
'23:05.739',-0.620,-0.040
'23:05.742',-0.590,-0.040
'23:05.744',-0.580,-0.055
'23:05.747',-0.580,-0.065
'23:05.750',-0.570,-0.085
'23:05.753',-0.570,-0.090
'23:05.756',-0.575,-0.095
'23:05.758',-0.580,-0.105
'23:05.761',-0.570,-0.090
'23:05.764',-0.560,-0.100
'23:05.767',-0.555,-0.095
'23:05.769',-0.555,-0.090
'23:05.772',-0.545,-0.090
'23:05.775',-0.535,-0.090
'23:05.778',-0.540,-0.105
'23:05.781',-0.535,-0.115
'23:05.783',-0.540,-0.120
'23:05.786',-0.555,-0.115
'23:05.789',-0.560,-0.130
'23:05.792',-0.570,-0.140
'23:05.794',-0.565,-0.135
'23:05.797',-0.575,-0.140
'23:05.800',-0.560,-0.125
'23:05.803',-0.570,-0.125
'23:05.806',-0.570,-0.115
'23:05.808',-0.560,-0.110
'23:05.811',-0.570,-0.140
'23:05.814',-0.560,-0.125
'23:05.817',-0.560,-0.145
'23:05.819',-0.580,-0.135
'23:05.822',-0.580,-0.150
'23:05.825',-0.590,-0.160
'23:05.828',-0.590,-0.150
'23:05.831',-0.600,-0.150
'23:05.833',-0.610,-0.140
'23:05.836',-0.580,-0.135
'23:05.839',-0.575,-0.135
'23:05.842',-0.585,-0.125
'23:05.844',-0.585,-0.135
'23:05.847',-0.590,-0.135
'23:05.850',-0.600,-0.150
'23:05.853',-0.605,-0.145
'23:05.856',-0.615,-0.155
'23:05.858',-0.620,-0.160
'23:05.861',-0.610,-0.170
'23:05.864',-0.620,-0.160
'23:05.867',-0.610,-0.145
'23:05.869',-0.605,-0.155
'23:05.872',-0.590,-0.140
'23:05.875',-0.590,-0.140
'23:05.878',-0.585,-0.150
'23:05.881',-0.580,-0.165
'23:05.883',-0.615,-0.175
'23:05.886',-0.645,-0.180
'23:05.889',-0.675,-0.195
'23:05.892',-0.700,-0.190
'23:05.894',-0.700,-0.175
'23:05.897',-0.695,-0.165
'23:05.900',-0.650,-0.175
'23:05.903',-0.560,-0.190
'23:05.906',-0.435,-0.250
'23:05.908',-0.275,-0.325
'23:05.911',-0.135,-0.465
'23:05.914',-0.015,-0.595
'23:05.917',0.080,-0.735
'23:05.919',0.135,-0.845
'23:05.922',0.165,-0.905
'23:05.925',0.160,-0.960
'23:05.928',0.125,-1.005
'23:05.931',0.035,-1.015
'23:05.933',-0.105,-1.020
'23:05.936',-0.245,-0.995
'23:05.939',-0.395,-0.965
'23:05.942',-0.520,-0.925
'23:05.944',-0.635,-0.915
'23:05.947',-0.765,-0.880
'23:05.950',-0.910,-0.885
'23:05.953',-1.075,-0.880
'23:05.956',-1.225,-0.865
'23:05.958',-1.365,-0.845
'23:05.961',-1.440,-0.815
'23:05.964',-1.460,-0.800
'23:05.967',-1.430,-0.765
'23:05.969',-1.385,-0.735
'23:05.972',-1.330,-0.715
'23:05.975',-1.265,-0.680
'23:05.978',-1.230,-0.670
'23:05.981',-1.210,-0.640
'23:05.983',-1.190,-0.595
'23:05.986',-1.185,-0.555
'23:05.989',-1.185,-0.510
'23:05.992',-1.185,-0.465
'23:05.994',-1.165,-0.410
'23:05.997',-1.120,-0.350
'23:06.000',-1.070,-0.315
'23:06.003',-1.010,-0.275
'23:06.006',-0.980,-0.250
'23:06.008',-0.920,-0.215
'23:06.011',-0.895,-0.185
'23:06.014',-0.860,-0.180
'23:06.017',-0.840,-0.155
'23:06.019',-0.810,-0.150
'23:06.022',-0.780,-0.140
'23:06.025',-0.755,-0.100
'23:06.028',-0.735,-0.080
'23:06.031',-0.700,-0.040
'23:06.033',-0.680,-0.010
'23:06.036',-0.655,0.005
'23:06.039',-0.655,0.030
'23:06.042',-0.650,0.045
'23:06.044',-0.645,0.035
'23:06.047',-0.655,0.035
'23:06.050',-0.650,0.025
'23:06.053',-0.660,0.030
'23:06.056',-0.665,0.035
'23:06.058',-0.665,0.040
'23:06.061',-0.670,0.040
'23:06.064',-0.665,0.055
'23:06.067',-0.665,0.060
'23:06.069',-0.670,0.070
'23:06.072',-0.675,0.095
'23:06.075',-0.655,0.095
'23:06.078',-0.645,0.095
'23:06.081',-0.645,0.095
'23:06.083',-0.645,0.085
'23:06.086',-0.655,0.100
'23:06.089',-0.655,0.100
'23:06.092',-0.660,0.105
'23:06.094',-0.660,0.110
'23:06.097',-0.655,0.120
'23:06.100',-0.655,0.135
'23:06.103',-0.650,0.160
'23:06.106',-0.640,0.175
'23:06.108',-0.635,0.180
'23:06.111',-0.640,0.180
'23:06.114',-0.640,0.190
'23:06.117',-0.650,0.195
'23:06.119',-0.650,0.200
'23:06.122',-0.665,0.195
'23:06.125',-0.645,0.215
'23:06.128',-0.645,0.225
'23:06.131',-0.645,0.235
'23:06.133',-0.630,0.260
'23:06.136',-0.620,0.270
'23:06.139',-0.610,0.275
'23:06.142',-0.575,0.305
'23:06.144',-0.555,0.295
'23:06.147',-0.540,0.310
'23:06.150',-0.515,0.300
'23:06.153',-0.505,0.300
'23:06.156',-0.505,0.300
'23:06.158',-0.490,0.300
'23:06.161',-0.475,0.300
'23:06.164',-0.440,0.305
'23:06.167',-0.400,0.315
'23:06.169',-0.380,0.315
'23:06.172',-0.350,0.335
'23:06.175',-0.320,0.325
'23:06.178',-0.285,0.310
'23:06.181',-0.265,0.305
'23:06.183',-0.255,0.295
'23:06.186',-0.230,0.285
'23:06.189',-0.220,0.270
'23:06.192',-0.200,0.255
'23:06.194',-0.185,0.250
'23:06.197',-0.155,0.240
'23:06.200',-0.140,0.245
'23:06.203',-0.110,0.230
'23:06.206',-0.090,0.225
'23:06.208',-0.065,0.210
'23:06.211',-0.065,0.185
'23:06.214',-0.055,0.170
'23:06.217',-0.050,0.145
'23:06.219',-0.050,0.115
'23:06.222',-0.045,0.100
'23:06.225',-0.050,0.095
'23:06.228',-0.060,0.080
'23:06.231',-0.060,0.065
'23:06.233',-0.060,0.070
'23:06.236',-0.060,0.055
'23:06.239',-0.065,0.050
'23:06.242',-0.070,0.045
'23:06.244',-0.090,0.020
'23:06.247',-0.090,-0.005
'23:06.250',-0.115,-0.020
'23:06.253',-0.130,-0.040
'23:06.256',-0.155,-0.055
'23:06.258',-0.160,-0.060
'23:06.261',-0.190,-0.080
'23:06.264',-0.200,-0.070
'23:06.267',-0.230,-0.070
'23:06.269',-0.225,-0.075
'23:06.272',-0.245,-0.070
'23:06.275',-0.245,-0.075
'23:06.278',-0.270,-0.100
'23:06.281',-0.295,-0.100
'23:06.283',-0.305,-0.110
'23:06.286',-0.325,-0.115
'23:06.289',-0.345,-0.125
'23:06.292',-0.360,-0.130
'23:06.294',-0.395,-0.140
'23:06.297',-0.380,-0.130
'23:06.300',-0.400,-0.120
'23:06.303',-0.410,-0.130
'23:06.306',-0.420,-0.135
'23:06.308',-0.420,-0.105
'23:06.311',-0.430,-0.125
'23:06.314',-0.440,-0.130
'23:06.317',-0.470,-0.135
'23:06.319',-0.475,-0.140
'23:06.322',-0.480,-0.140
'23:06.325',-0.485,-0.155
'23:06.328',-0.500,-0.135
'23:06.331',-0.490,-0.135
'23:06.333',-0.490,-0.130
'23:06.336',-0.485,-0.130
'23:06.339',-0.485,-0.125
'23:06.342',-0.485,-0.115
'23:06.344',-0.480,-0.130
'23:06.347',-0.485,-0.125
'23:06.350',-0.485,-0.140
'23:06.353',-0.495,-0.140
'23:06.356',-0.505,-0.140
'23:06.358',-0.515,-0.160
'23:06.361',-0.520,-0.130
'23:06.364',-0.515,-0.145
'23:06.367',-0.500,-0.135
'23:06.369',-0.505,-0.125
'23:06.372',-0.485,-0.125
'23:06.375',-0.480,-0.130
'23:06.378',-0.490,-0.130
'23:06.381',-0.485,-0.140
'23:06.383',-0.490,-0.145
'23:06.386',-0.500,-0.155
'23:06.389',-0.495,-0.160
'23:06.392',-0.510,-0.170
'23:06.394',-0.505,-0.175
'23:06.397',-0.495,-0.160
'23:06.400',-0.500,-0.155
'23:06.403',-0.490,-0.150
'23:06.406',-0.495,-0.150
'23:06.408',-0.480,-0.145
'23:06.411',-0.485,-0.160
'23:06.414',-0.495,-0.165
'23:06.417',-0.500,-0.170
'23:06.419',-0.505,-0.180
'23:06.422',-0.510,-0.190
'23:06.425',-0.515,-0.195
'23:06.428',-0.525,-0.195
'23:06.431',-0.515,-0.185
'23:06.433',-0.500,-0.175
'23:06.436',-0.500,-0.170
'23:06.439',-0.500,-0.175
'23:06.442',-0.490,-0.175
'23:06.444',-0.485,-0.165
'23:06.447',-0.490,-0.175
'23:06.450',-0.500,-0.190
'23:06.453',-0.515,-0.200
'23:06.456',-0.520,-0.195
'23:06.458',-0.520,-0.200
'23:06.461',-0.525,-0.200
'23:06.464',-0.520,-0.185
'23:06.467',-0.525,-0.190
'23:06.469',-0.515,-0.170
'23:06.472',-0.505,-0.180
'23:06.475',-0.510,-0.180
'23:06.478',-0.510,-0.180
'23:06.481',-0.505,-0.180
'23:06.483',-0.510,-0.190
'23:06.486',-0.515,-0.195
'23:06.489',-0.545,-0.205
'23:06.492',-0.550,-0.210
'23:06.494',-0.560,-0.200
'23:06.497',-0.545,-0.200
'23:06.500',-0.555,-0.190
'23:06.503',-0.540,-0.195
'23:06.506',-0.535,-0.175
'23:06.508',-0.520,-0.180
'23:06.511',-0.505,-0.180
'23:06.514',-0.510,-0.185
'23:06.517',-0.510,-0.200
'23:06.519',-0.525,-0.200
'23:06.522',-0.540,-0.210
'23:06.525',-0.540,-0.215
'23:06.528',-0.540,-0.210
'23:06.531',-0.550,-0.205
'23:06.533',-0.535,-0.200
'23:06.536',-0.520,-0.200
'23:06.539',-0.520,-0.190
'23:06.542',-0.505,-0.180
'23:06.544',-0.515,-0.205
'23:06.547',-0.520,-0.200
'23:06.550',-0.515,-0.205
'23:06.553',-0.540,-0.205
'23:06.556',-0.535,-0.210
'23:06.558',-0.540,-0.215
'23:06.561',-0.540,-0.225
'23:06.564',-0.535,-0.215
'23:06.567',-0.535,-0.205
'23:06.569',-0.525,-0.200
'23:06.572',-0.520,-0.190
'23:06.575',-0.510,-0.180
'23:06.578',-0.505,-0.190
'23:06.581',-0.515,-0.195
'23:06.583',-0.515,-0.210
'23:06.586',-0.510,-0.215
'23:06.589',-0.515,-0.225
'23:06.592',-0.520,-0.230
'23:06.594',-0.505,-0.220
'23:06.597',-0.505,-0.210
'23:06.600',-0.495,-0.215
'23:06.603',-0.490,-0.195
'23:06.606',-0.475,-0.185
'23:06.608',-0.475,-0.185
'23:06.611',-0.475,-0.180
'23:06.614',-0.470,-0.170
'23:06.617',-0.465,-0.185
'23:06.619',-0.485,-0.180
'23:06.622',-0.480,-0.185
'23:06.625',-0.470,-0.170
'23:06.628',-0.465,-0.160
'23:06.631',-0.465,-0.170
'23:06.633',-0.455,-0.150
'23:06.636',-0.445,-0.130
'23:06.639',-0.435,-0.125
'23:06.642',-0.400,-0.115
'23:06.644',-0.390,-0.140
'23:06.647',-0.390,-0.150
'23:06.650',-0.395,-0.175
'23:06.653',-0.380,-0.200
'23:06.656',-0.390,-0.220
'23:06.658',-0.395,-0.230
'23:06.661',-0.405,-0.235
'23:06.664',-0.415,-0.255
'23:06.667',-0.420,-0.260
'23:06.669',-0.420,-0.255
'23:06.672',-0.430,-0.255
'23:06.675',-0.420,-0.250
'23:06.678',-0.430,-0.235
'23:06.681',-0.445,-0.235
'23:06.683',-0.470,-0.235
'23:06.686',-0.480,-0.230
'23:06.689',-0.500,-0.225
'23:06.692',-0.515,-0.225
'23:06.694',-0.525,-0.230
'23:06.697',-0.545,-0.225
'23:06.700',-0.550,-0.210
'23:06.703',-0.555,-0.205
'23:06.706',-0.555,-0.190
'23:06.708',-0.570,-0.190
'23:06.711',-0.550,-0.200
'23:06.714',-0.565,-0.200
'23:06.717',-0.570,-0.220
'23:06.719',-0.575,-0.225
'23:06.722',-0.575,-0.230
'23:06.725',-0.580,-0.230
'23:06.728',-0.585,-0.215
'23:06.731',-0.590,-0.210
'23:06.733',-0.575,-0.215
'23:06.736',-0.570,-0.200
'23:06.739',-0.565,-0.200
'23:06.742',-0.555,-0.190
'23:06.744',-0.540,-0.210
'23:06.747',-0.530,-0.225
'23:06.750',-0.535,-0.230
'23:06.753',-0.525,-0.240
'23:06.756',-0.515,-0.240
'23:06.758',-0.500,-0.260
'23:06.761',-0.480,-0.245
'23:06.764',-0.435,-0.245
'23:06.767',-0.365,-0.235
'23:06.769',-0.285,-0.240
'23:06.772',-0.185,-0.230
'23:06.775',-0.065,-0.215
'23:06.778',0.055,-0.250
'23:06.781',0.205,-0.250
'23:06.783',0.375,-0.275
'23:06.786',0.545,-0.295
'23:06.789',0.695,-0.360
'23:06.792',0.825,-0.435
'23:06.794',0.920,-0.505
'23:06.797',1.025,-0.600
'23:06.800',1.150,-0.690
'23:06.803',1.295,-0.790
'23:06.806',1.415,-0.880
'23:06.808',1.445,-0.980
'23:06.811',1.320,-1.075
'23:06.814',1.045,-1.165
'23:06.817',0.655,-1.230
'23:06.819',0.205,-1.275
'23:06.822',-0.215,-1.260
'23:06.825',-0.540,-1.225
'23:06.828',-0.740,-1.145
'23:06.831',-0.825,-1.060
'23:06.833',-0.825,-0.965
'23:06.836',-0.785,-0.880
'23:06.839',-0.740,-0.790
'23:06.842',-0.695,-0.715
'23:06.844',-0.690,-0.680
'23:06.847',-0.690,-0.625
'23:06.850',-0.680,-0.585
'23:06.853',-0.685,-0.545
'23:06.856',-0.685,-0.490
'23:06.858',-0.700,-0.435
'23:06.861',-0.700,-0.380
'23:06.864',-0.695,-0.345
'23:06.867',-0.700,-0.290
'23:06.869',-0.700,-0.275
'23:06.872',-0.690,-0.255
'23:06.875',-0.690,-0.255
'23:06.878',-0.700,-0.255
'23:06.881',-0.705,-0.250
'23:06.883',-0.700,-0.250
'23:06.886',-0.710,-0.250
'23:06.889',-0.725,-0.260
'23:06.892',-0.725,-0.255
'23:06.894',-0.725,-0.245
'23:06.897',-0.735,-0.240
'23:06.900',-0.735,-0.220
'23:06.903',-0.735,-0.215
'23:06.906',-0.735,-0.210
'23:06.908',-0.720,-0.205
'23:06.911',-0.735,-0.200
'23:06.914',-0.730,-0.220
'23:06.917',-0.735,-0.220
'23:06.919',-0.745,-0.230
'23:06.922',-0.765,-0.230
'23:06.925',-0.765,-0.230
'23:06.928',-0.765,-0.225
'23:06.931',-0.775,-0.220
'23:06.933',-0.775,-0.210
'23:06.936',-0.770,-0.205
'23:06.939',-0.770,-0.200
'23:06.942',-0.760,-0.190
'23:06.944',-0.770,-0.210
'23:06.947',-0.780,-0.195
'23:06.950',-0.785,-0.210
'23:06.953',-0.810,-0.210
'23:06.956',-0.810,-0.220
'23:06.958',-0.810,-0.225
'23:06.961',-0.820,-0.225
'23:06.964',-0.835,-0.225
'23:06.967',-0.830,-0.215
'23:06.969',-0.825,-0.215
'23:06.972',-0.830,-0.195
'23:06.975',-0.820,-0.195
'23:06.978',-0.825,-0.200
'23:06.981',-0.835,-0.195
'23:06.983',-0.840,-0.195
'23:06.986',-0.850,-0.210
'23:06.989',-0.865,-0.215
'23:06.992',-0.875,-0.225
'23:06.994',-0.880,-0.220
'23:06.997',-0.885,-0.200
'23:07.000',-0.890,-0.205
'23:07.003',-0.900,-0.180
'23:07.006',-0.900,-0.190
'23:07.008',-0.885,-0.175
'23:07.011',-0.885,-0.180
'23:07.014',-0.890,-0.180
'23:07.017',-0.910,-0.185
'23:07.019',-0.925,-0.190
'23:07.022',-0.925,-0.195
'23:07.025',-0.940,-0.190
'23:07.028',-0.945,-0.175
'23:07.031',-0.945,-0.175
'23:07.033',-0.935,-0.160
'23:07.036',-0.935,-0.160
'23:07.039',-0.930,-0.135
'23:07.042',-0.925,-0.145
'23:07.044',-0.935,-0.140
'23:07.047',-0.935,-0.145
'23:07.050',-0.935,-0.155
'23:07.053',-0.945,-0.150
'23:07.056',-0.930,-0.155
'23:07.058',-0.925,-0.155
'23:07.061',-0.920,-0.160
'23:07.064',-0.915,-0.150
'23:07.067',-0.910,-0.130
'23:07.069',-0.895,-0.135
'23:07.072',-0.870,-0.120
'23:07.075',-0.855,-0.105
'23:07.078',-0.840,-0.110
'23:07.081',-0.835,-0.115
'23:07.083',-0.835,-0.125
'23:07.086',-0.835,-0.135
'23:07.089',-0.820,-0.145
'23:07.092',-0.810,-0.150
'23:07.094',-0.805,-0.145
'23:07.097',-0.780,-0.130
'23:07.100',-0.765,-0.130
'23:07.103',-0.735,-0.140
'23:07.106',-0.715,-0.125
'23:07.108',-0.690,-0.135
'23:07.111',-0.680,-0.145
'23:07.114',-0.670,-0.155
'23:07.117',-0.655,-0.160
'23:07.119',-0.655,-0.180
'23:07.122',-0.655,-0.200
'23:07.125',-0.645,-0.200
'23:07.128',-0.650,-0.210
'23:07.131',-0.645,-0.225
'23:07.133',-0.655,-0.215
'23:07.136',-0.635,-0.195
'23:07.139',-0.630,-0.200
'23:07.142',-0.605,-0.205
'23:07.144',-0.605,-0.210
'23:07.147',-0.615,-0.210
'23:07.150',-0.615,-0.230
'23:07.153',-0.610,-0.245
'23:07.156',-0.620,-0.250
'23:07.158',-0.615,-0.245
'23:07.161',-0.620,-0.260
'23:07.164',-0.630,-0.255
'23:07.167',-0.635,-0.255
'23:07.169',-0.640,-0.245
'23:07.172',-0.635,-0.240
'23:07.175',-0.630,-0.235
'23:07.178',-0.625,-0.240
'23:07.181',-0.625,-0.235
'23:07.183',-0.625,-0.255
'23:07.186',-0.625,-0.275
'23:07.189',-0.650,-0.270
'23:07.192',-0.645,-0.270
'23:07.194',-0.650,-0.265
'23:07.197',-0.650,-0.270
'23:07.200',-0.650,-0.260
'23:07.203',-0.650,-0.265
'23:07.206',-0.645,-0.250
'23:07.208',-0.645,-0.255
'23:07.211',-0.645,-0.260
'23:07.214',-0.660,-0.245
'23:07.217',-0.660,-0.270
'23:07.219',-0.670,-0.270
'23:07.222',-0.680,-0.275
'23:07.225',-0.685,-0.275
'23:07.228',-0.695,-0.280
'23:07.231',-0.700,-0.280
'23:07.233',-0.695,-0.275
'23:07.236',-0.690,-0.250
'23:07.239',-0.680,-0.265
'23:07.242',-0.670,-0.265
'23:07.244',-0.685,-0.260
'23:07.247',-0.670,-0.270
'23:07.250',-0.675,-0.275
'23:07.253',-0.690,-0.290
'23:07.256',-0.685,-0.300
'23:07.258',-0.690,-0.300
'23:07.261',-0.700,-0.305
'23:07.264',-0.705,-0.310
'23:07.267',-0.725,-0.300
'23:07.269',-0.715,-0.300
'23:07.272',-0.710,-0.280
'23:07.275',-0.700,-0.275
'23:07.278',-0.655,-0.300
'23:07.281',-0.595,-0.325
'23:07.283',-0.510,-0.400
'23:07.286',-0.410,-0.500
'23:07.289',-0.290,-0.620
'23:07.292',-0.160,-0.765
'23:07.294',-0.055,-0.900
'23:07.297',0.040,-1.030
'23:07.300',0.090,-1.125
'23:07.303',0.150,-1.190
'23:07.306',0.145,-1.225
'23:07.308',0.115,-1.245
'23:07.311',0.020,-1.255
'23:07.314',-0.115,-1.245
'23:07.317',-0.255,-1.205
'23:07.319',-0.385,-1.185
'23:07.322',-0.500,-1.155
'23:07.325',-0.610,-1.130
'23:07.328',-0.720,-1.115
'23:07.331',-0.850,-1.110
'23:07.333',-0.990,-1.095
'23:07.336',-1.115,-1.095
'23:07.339',-1.210,-1.055
'23:07.342',-1.265,-1.035
'23:07.344',-1.290,-1.020
'23:07.347',-1.295,-0.995
'23:07.350',-1.270,-0.945
'23:07.353',-1.255,-0.915
'23:07.356',-1.215,-0.865
'23:07.358',-1.185,-0.810
'23:07.361',-1.180,-0.765
'23:07.364',-1.165,-0.690
'23:07.367',-1.165,-0.645
'23:07.369',-1.155,-0.585
'23:07.372',-1.145,-0.520
'23:07.375',-1.120,-0.470
'23:07.378',-1.080,-0.435
'23:07.381',-1.045,-0.400
'23:07.383',-1.015,-0.380
'23:07.386',-0.990,-0.360
'23:07.389',-0.955,-0.340
'23:07.392',-0.925,-0.315
'23:07.394',-0.890,-0.290
'23:07.397',-0.855,-0.255
'23:07.400',-0.825,-0.245
'23:07.403',-0.795,-0.215
'23:07.406',-0.765,-0.190
'23:07.408',-0.735,-0.150
'23:07.411',-0.720,-0.120
'23:07.414',-0.705,-0.110
'23:07.417',-0.700,-0.100
'23:07.419',-0.710,-0.095
'23:07.422',-0.725,-0.090
'23:07.425',-0.730,-0.085
'23:07.428',-0.750,-0.090
'23:07.431',-0.740,-0.075
'23:07.433',-0.735,-0.070
'23:07.436',-0.725,-0.050
'23:07.439',-0.715,-0.045
'23:07.442',-0.715,-0.025
'23:07.444',-0.710,-0.035
'23:07.447',-0.710,-0.030
'23:07.450',-0.715,-0.035
'23:07.453',-0.715,-0.030
'23:07.456',-0.720,-0.020
'23:07.458',-0.735,-0.030
'23:07.461',-0.730,-0.005
'23:07.464',-0.735,-0.010
'23:07.467',-0.735,0.015
'23:07.469',-0.725,0.020
'23:07.472',-0.730,0.040
'23:07.475',-0.725,0.060
'23:07.478',-0.730,0.050
'23:07.481',-0.730,0.055
'23:07.483',-0.745,0.055
'23:07.486',-0.735,0.055
'23:07.489',-0.745,0.065
'23:07.492',-0.745,0.070
'23:07.494',-0.755,0.080
'23:07.497',-0.745,0.095
'23:07.500',-0.750,0.125
'23:07.503',-0.730,0.125
'23:07.506',-0.735,0.145
'23:07.508',-0.710,0.165
'23:07.511',-0.705,0.170
'23:07.514',-0.710,0.180
'23:07.517',-0.705,0.170
'23:07.519',-0.695,0.180
'23:07.522',-0.690,0.190
'23:07.525',-0.685,0.190
'23:07.528',-0.680,0.210
'23:07.531',-0.670,0.220
'23:07.533',-0.650,0.235
'23:07.536',-0.635,0.250
'23:07.539',-0.620,0.260
'23:07.542',-0.590,0.260
'23:07.544',-0.560,0.250
'23:07.547',-0.535,0.245
'23:07.550',-0.515,0.245
'23:07.553',-0.505,0.235
'23:07.556',-0.485,0.230
'23:07.558',-0.470,0.210
'23:07.561',-0.445,0.220
'23:07.564',-0.405,0.215
'23:07.567',-0.390,0.220
'23:07.569',-0.345,0.220
'23:07.572',-0.320,0.210
'23:07.575',-0.275,0.210
'23:07.578',-0.260,0.180
'23:07.581',-0.235,0.155
'23:07.583',-0.225,0.145
'23:07.586',-0.215,0.115
'23:07.589',-0.205,0.085
'23:07.592',-0.205,0.060
'23:07.594',-0.205,0.055
'23:07.597',-0.205,0.050
'23:07.600',-0.195,0.045
'23:07.603',-0.175,0.015
'23:07.606',-0.180,0.010
'23:07.608',-0.170,-0.005
'23:07.611',-0.175,-0.020
'23:07.614',-0.185,-0.040
'23:07.617',-0.195,-0.065
'23:07.619',-0.215,-0.085
'23:07.622',-0.225,-0.100
'23:07.625',-0.255,-0.115
'23:07.628',-0.265,-0.135
'23:07.631',-0.275,-0.150
'23:07.633',-0.290,-0.135
'23:07.636',-0.300,-0.145
'23:07.639',-0.310,-0.160
'23:07.642',-0.315,-0.175
'23:07.644',-0.335,-0.180
'23:07.647',-0.365,-0.185
'23:07.650',-0.380,-0.200
'23:07.653',-0.400,-0.210
'23:07.656',-0.425,-0.220
'23:07.658',-0.435,-0.230
'23:07.661',-0.455,-0.215
'23:07.664',-0.470,-0.230
'23:07.667',-0.475,-0.215
'23:07.669',-0.495,-0.210
'23:07.672',-0.495,-0.215
'23:07.675',-0.505,-0.210
'23:07.678',-0.495,-0.215
'23:07.681',-0.515,-0.210
'23:07.683',-0.525,-0.225
'23:07.686',-0.535,-0.225
'23:07.689',-0.550,-0.230
'23:07.692',-0.560,-0.250
'23:07.694',-0.575,-0.240
'23:07.697',-0.575,-0.240
'23:07.700',-0.580,-0.225
'23:07.703',-0.590,-0.220
'23:07.706',-0.590,-0.210
'23:07.708',-0.575,-0.200
'23:07.711',-0.585,-0.215
'23:07.714',-0.580,-0.220
'23:07.717',-0.585,-0.220
'23:07.719',-0.595,-0.235
'23:07.722',-0.595,-0.240
'23:07.725',-0.610,-0.235
'23:07.728',-0.610,-0.240
'23:07.731',-0.605,-0.230
'23:07.733',-0.595,-0.230
'23:07.736',-0.605,-0.215
'23:07.739',-0.590,-0.210
'23:07.742',-0.580,-0.210
'23:07.744',-0.580,-0.220
'23:07.747',-0.575,-0.220
'23:07.750',-0.575,-0.235
'23:07.753',-0.585,-0.240
'23:07.756',-0.585,-0.225
'23:07.758',-0.590,-0.245
'23:07.761',-0.590,-0.255
'23:07.764',-0.595,-0.245
'23:07.767',-0.590,-0.240
'23:07.769',-0.600,-0.220
'23:07.772',-0.575,-0.235
'23:07.775',-0.570,-0.220
'23:07.778',-0.565,-0.220
'23:07.781',-0.570,-0.240
'23:07.783',-0.570,-0.250
'23:07.786',-0.580,-0.255
'23:07.789',-0.590,-0.260
'23:07.792',-0.605,-0.275
'23:07.794',-0.615,-0.270
'23:07.797',-0.600,-0.270
'23:07.800',-0.610,-0.260
'23:07.803',-0.585,-0.250
'23:07.806',-0.580,-0.245
'23:07.808',-0.585,-0.255
'23:07.811',-0.575,-0.255
'23:07.814',-0.580,-0.255
'23:07.817',-0.590,-0.275
'23:07.819',-0.590,-0.275
'23:07.822',-0.595,-0.295
'23:07.825',-0.605,-0.280
'23:07.828',-0.615,-0.275
'23:07.831',-0.600,-0.275
'23:07.833',-0.610,-0.260
'23:07.836',-0.590,-0.260
'23:07.839',-0.590,-0.265
'23:07.842',-0.585,-0.250
'23:07.844',-0.580,-0.275
'23:07.847',-0.590,-0.265
'23:07.850',-0.590,-0.280
'23:07.853',-0.600,-0.285
'23:07.856',-0.600,-0.290
'23:07.858',-0.610,-0.290
'23:07.861',-0.610,-0.295
'23:07.864',-0.610,-0.275
'23:07.867',-0.605,-0.275
'23:07.869',-0.605,-0.280
'23:07.872',-0.595,-0.260
'23:07.875',-0.590,-0.260
'23:07.878',-0.590,-0.270
'23:07.881',-0.595,-0.265
'23:07.883',-0.600,-0.275
'23:07.886',-0.610,-0.290
'23:07.889',-0.625,-0.290
'23:07.892',-0.625,-0.295
'23:07.894',-0.625,-0.295
'23:07.897',-0.620,-0.295
'23:07.900',-0.620,-0.280
'23:07.903',-0.615,-0.280
'23:07.906',-0.590,-0.280
'23:07.908',-0.590,-0.260
'23:07.911',-0.580,-0.270
'23:07.914',-0.585,-0.270
'23:07.917',-0.595,-0.275
'23:07.919',-0.605,-0.270
'23:07.922',-0.615,-0.285
'23:07.925',-0.610,-0.295
'23:07.928',-0.605,-0.280
'23:07.931',-0.610,-0.275
'23:07.933',-0.600,-0.270
'23:07.936',-0.595,-0.275
'23:07.939',-0.615,-0.260
'23:07.942',-0.595,-0.260
'23:07.944',-0.580,-0.270
'23:07.947',-0.590,-0.265
'23:07.950',-0.590,-0.290
'23:07.953',-0.600,-0.285
'23:07.956',-0.595,-0.300
'23:07.958',-0.605,-0.300
'23:07.961',-0.605,-0.295
'23:07.964',-0.610,-0.285
'23:07.967',-0.595,-0.275
'23:07.969',-0.580,-0.260
'23:07.972',-0.580,-0.245
'23:07.975',-0.550,-0.235
'23:07.978',-0.550,-0.225
'23:07.981',-0.545,-0.240
'23:07.983',-0.545,-0.245
'23:07.986',-0.550,-0.255
'23:07.989',-0.555,-0.275
'23:07.992',-0.570,-0.280
'23:07.994',-0.565,-0.290
'23:07.997',-0.575,-0.275
'23:08.000',-0.565,-0.275
'23:08.003',-0.575,-0.250
'23:08.006',-0.570,-0.230
'23:08.008',-0.560,-0.210
'23:08.011',-0.570,-0.210
'23:08.014',-0.585,-0.195
'23:08.017',-0.590,-0.200
'23:08.019',-0.595,-0.205
'23:08.022',-0.600,-0.225
'23:08.025',-0.615,-0.245
'23:08.028',-0.620,-0.260
'23:08.031',-0.625,-0.270
'23:08.033',-0.620,-0.280
'23:08.036',-0.620,-0.280
'23:08.039',-0.615,-0.270
'23:08.042',-0.605,-0.260
'23:08.044',-0.610,-0.240
'23:08.047',-0.610,-0.250
'23:08.050',-0.605,-0.250
'23:08.053',-0.610,-0.270
'23:08.056',-0.600,-0.260
'23:08.058',-0.610,-0.290
'23:08.061',-0.605,-0.280
'23:08.064',-0.595,-0.285
'23:08.067',-0.585,-0.280
'23:08.069',-0.570,-0.275
'23:08.072',-0.555,-0.260
'23:08.075',-0.530,-0.255
'23:08.078',-0.510,-0.265
'23:08.081',-0.480,-0.285
'23:08.083',-0.430,-0.290
'23:08.086',-0.370,-0.290
'23:08.089',-0.300,-0.305
'23:08.092',-0.215,-0.305
'23:08.094',-0.140,-0.315
'23:08.097',-0.015,-0.315
'23:08.100',0.125,-0.330
'23:08.103',0.270,-0.330
'23:08.106',0.420,-0.350
'23:08.108',0.575,-0.385
'23:08.111',0.705,-0.440
'23:08.114',0.825,-0.530
'23:08.117',0.910,-0.620
'23:08.119',1.005,-0.725
'23:08.122',1.125,-0.820
'23:08.125',1.260,-0.925
'23:08.128',1.360,-1.020
'23:08.131',1.375,-1.115
'23:08.133',1.245,-1.200
'23:08.136',0.990,-1.280
'23:08.139',0.625,-1.320
'23:08.142',0.230,-1.355
'23:08.144',-0.155,-1.360
'23:08.147',-0.485,-1.330
'23:08.150',-0.690,-1.255
'23:08.153',-0.810,-1.175
'23:08.156',-0.845,-1.080
'23:08.158',-0.825,-0.990
'23:08.161',-0.795,-0.900
'23:08.164',-0.765,-0.820
'23:08.167',-0.745,-0.740
'23:08.169',-0.725,-0.660
'23:08.172',-0.700,-0.595
'23:08.175',-0.675,-0.520
'23:08.178',-0.675,-0.445
'23:08.181',-0.685,-0.390
'23:08.183',-0.695,-0.340
'23:08.186',-0.710,-0.335
'23:08.189',-0.725,-0.320
'23:08.192',-0.740,-0.320
'23:08.194',-0.735,-0.320
'23:08.197',-0.740,-0.320
'23:08.200',-0.730,-0.305
'23:08.203',-0.730,-0.290
'23:08.206',-0.715,-0.290
'23:08.208',-0.710,-0.260
'23:08.211',-0.710,-0.270
'23:08.214',-0.720,-0.265
'23:08.217',-0.725,-0.270
'23:08.219',-0.730,-0.285
'23:08.222',-0.740,-0.290
'23:08.225',-0.750,-0.290
'23:08.228',-0.755,-0.285
'23:08.231',-0.760,-0.280
'23:08.233',-0.760,-0.270
'23:08.236',-0.750,-0.270
'23:08.239',-0.755,-0.270
'23:08.242',-0.760,-0.245
'23:08.244',-0.760,-0.245
'23:08.247',-0.755,-0.260
'23:08.250',-0.765,-0.260
'23:08.253',-0.770,-0.275
'23:08.256',-0.765,-0.280
'23:08.258',-0.775,-0.270
'23:08.261',-0.790,-0.280
'23:08.264',-0.790,-0.270
'23:08.267',-0.790,-0.255
'23:08.269',-0.795,-0.255
'23:08.272',-0.795,-0.255
'23:08.275',-0.800,-0.245
'23:08.278',-0.800,-0.255
'23:08.281',-0.805,-0.240
'23:08.283',-0.820,-0.255
'23:08.286',-0.815,-0.250
'23:08.289',-0.820,-0.270
'23:08.292',-0.845,-0.270
'23:08.294',-0.860,-0.260
'23:08.297',-0.865,-0.245
'23:08.300',-0.860,-0.235
'23:08.303',-0.860,-0.240
'23:08.306',-0.860,-0.235
'23:08.308',-0.860,-0.235
'23:08.311',-0.865,-0.230
'23:08.314',-0.885,-0.230
'23:08.317',-0.880,-0.235
'23:08.319',-0.895,-0.245
'23:08.322',-0.900,-0.240
'23:08.325',-0.920,-0.245
'23:08.328',-0.920,-0.240
'23:08.331',-0.920,-0.235
'23:08.333',-0.915,-0.225
'23:08.336',-0.915,-0.210
'23:08.339',-0.895,-0.200
'23:08.342',-0.910,-0.190
'23:08.344',-0.895,-0.190
'23:08.347',-0.895,-0.195
'23:08.350',-0.900,-0.205
'23:08.353',-0.900,-0.205
'23:08.356',-0.905,-0.210
'23:08.358',-0.920,-0.210
'23:08.361',-0.925,-0.210
'23:08.364',-0.910,-0.195
'23:08.367',-0.900,-0.190
'23:08.369',-0.875,-0.175
'23:08.372',-0.860,-0.180
'23:08.375',-0.825,-0.160
'23:08.378',-0.810,-0.175
'23:08.381',-0.780,-0.170
'23:08.383',-0.780,-0.180
'23:08.386',-0.760,-0.195
'23:08.389',-0.730,-0.200
'23:08.392',-0.725,-0.215
'23:08.394',-0.695,-0.225
'23:08.397',-0.690,-0.215
'23:08.400',-0.675,-0.220
'23:08.403',-0.655,-0.215
'23:08.406',-0.640,-0.220
'23:08.408',-0.620,-0.210
'23:08.411',-0.615,-0.235
'23:08.414',-0.605,-0.235
'23:08.417',-0.600,-0.255
'23:08.419',-0.610,-0.270
'23:08.422',-0.605,-0.265
'23:08.425',-0.600,-0.275
'23:08.428',-0.600,-0.295
'23:08.431',-0.595,-0.270
'23:08.433',-0.595,-0.270
'23:08.436',-0.585,-0.265
'23:08.439',-0.585,-0.265
'23:08.442',-0.585,-0.270
'23:08.444',-0.565,-0.270
'23:08.447',-0.565,-0.270
'23:08.450',-0.570,-0.275
'23:08.453',-0.575,-0.290
'23:08.456',-0.585,-0.300
'23:08.458',-0.590,-0.320
'23:08.461',-0.605,-0.305
'23:08.464',-0.605,-0.300
'23:08.467',-0.600,-0.295
'23:08.469',-0.595,-0.295
'23:08.472',-0.580,-0.270
'23:08.475',-0.580,-0.275
'23:08.478',-0.580,-0.285
'23:08.481',-0.595,-0.290
'23:08.483',-0.600,-0.295
'23:08.486',-0.610,-0.305
'23:08.489',-0.615,-0.305
'23:08.492',-0.635,-0.315
'23:08.494',-0.635,-0.315
'23:08.497',-0.635,-0.315
'23:08.500',-0.630,-0.300
'23:08.503',-0.615,-0.295
'23:08.506',-0.620,-0.290
'23:08.508',-0.615,-0.285
'23:08.511',-0.620,-0.290
'23:08.514',-0.630,-0.290
'23:08.517',-0.625,-0.300
'23:08.519',-0.645,-0.305
'23:08.522',-0.650,-0.310
'23:08.525',-0.660,-0.315
'23:08.528',-0.665,-0.310
'23:08.531',-0.675,-0.325
'23:08.533',-0.665,-0.310
'23:08.536',-0.665,-0.305
'23:08.539',-0.660,-0.290
'23:08.542',-0.645,-0.295
'23:08.544',-0.650,-0.300
'23:08.547',-0.650,-0.295
'23:08.550',-0.650,-0.300
'23:08.553',-0.655,-0.305
'23:08.556',-0.660,-0.315
'23:08.558',-0.650,-0.315
'23:08.561',-0.655,-0.335
'23:08.564',-0.645,-0.340
'23:08.567',-0.650,-0.330
'23:08.569',-0.645,-0.335
'23:08.572',-0.660,-0.315
'23:08.575',-0.670,-0.300
'23:08.578',-0.665,-0.305
'23:08.581',-0.660,-0.315
'23:08.583',-0.625,-0.340
'23:08.586',-0.565,-0.410
'23:08.589',-0.465,-0.495
'23:08.592',-0.345,-0.610
'23:08.594',-0.205,-0.755
'23:08.597',-0.090,-0.905
'23:08.600',-0.005,-1.040
'23:08.603',0.055,-1.135
'23:08.606',0.075,-1.210
'23:08.608',0.080,-1.235
'23:08.611',0.030,-1.270
'23:08.614',-0.070,-1.295
'23:08.617',-0.195,-1.290
'23:08.619',-0.345,-1.275
'23:08.622',-0.485,-1.250
'23:08.625',-0.610,-1.215
'23:08.628',-0.705,-1.185
'23:08.631',-0.795,-1.160
'23:08.633',-0.910,-1.130
'23:08.636',-1.020,-1.095
'23:08.639',-1.145,-1.070
'23:08.642',-1.270,-1.030
'23:08.644',-1.375,-1.015
'23:08.647',-1.440,-0.980
'23:08.650',-1.475,-0.940
'23:08.653',-1.475,-0.920
'23:08.656',-1.450,-0.880
'23:08.658',-1.405,-0.845
'23:08.661',-1.350,-0.810
'23:08.664',-1.310,-0.755
'23:08.667',-1.250,-0.700
'23:08.669',-1.220,-0.645
'23:08.672',-1.170,-0.610
'23:08.675',-1.155,-0.565
'23:08.678',-1.105,-0.510
'23:08.681',-1.095,-0.475
'23:08.683',-1.050,-0.440
'23:08.686',-1.015,-0.420
'23:08.689',-0.960,-0.400
'23:08.692',-0.925,-0.385
'23:08.694',-0.880,-0.380
'23:08.697',-0.835,-0.360
'23:08.700',-0.790,-0.345
'23:08.703',-0.760,-0.345
'23:08.706',-0.715,-0.330
'23:08.708',-0.685,-0.325
'23:08.711',-0.665,-0.325
'23:08.714',-0.650,-0.320
'23:08.717',-0.635,-0.305
'23:08.719',-0.625,-0.290
'23:08.722',-0.615,-0.260
'23:08.725',-0.625,-0.230
'23:08.728',-0.635,-0.200
'23:08.731',-0.625,-0.165
'23:08.733',-0.635,-0.145
'23:08.736',-0.635,-0.115
'23:08.739',-0.645,-0.090
'23:08.742',-0.645,-0.080
'23:08.744',-0.650,-0.055
'23:08.747',-0.670,-0.055
'23:08.750',-0.670,-0.050
'23:08.753',-0.680,-0.070
'23:08.756',-0.690,-0.060
'23:08.758',-0.695,-0.055
'23:08.761',-0.685,-0.030
'23:08.764',-0.690,-0.030
'23:08.767',-0.675,-0.015
'23:08.769',-0.670,0.010
'23:08.772',-0.660,0.015
'23:08.775',-0.665,0.030
'23:08.778',-0.660,0.025
'23:08.781',-0.655,0.035
'23:08.783',-0.665,0.040
'23:08.786',-0.665,0.045
'23:08.789',-0.675,0.045
'23:08.792',-0.675,0.050
'23:08.794',-0.670,0.065
'23:08.797',-0.670,0.080
'23:08.800',-0.670,0.100
'23:08.803',-0.665,0.105
'23:08.806',-0.655,0.140
'23:08.808',-0.640,0.155
'23:08.811',-0.635,0.165
'23:08.814',-0.630,0.170
'23:08.817',-0.625,0.175
'23:08.819',-0.625,0.180
'23:08.822',-0.635,0.175
'23:08.825',-0.625,0.185
'23:08.828',-0.610,0.205
'23:08.831',-0.595,0.200
'23:08.833',-0.575,0.225
'23:08.836',-0.550,0.235
'23:08.839',-0.545,0.250
'23:08.842',-0.520,0.255
'23:08.844',-0.495,0.260
'23:08.847',-0.485,0.250
'23:08.850',-0.470,0.250
'23:08.853',-0.450,0.255
'23:08.856',-0.420,0.245
'23:08.858',-0.420,0.235
'23:08.861',-0.380,0.240
'23:08.864',-0.355,0.250
'23:08.867',-0.325,0.245
'23:08.869',-0.300,0.250
'23:08.872',-0.270,0.245
'23:08.875',-0.245,0.240
'23:08.878',-0.230,0.230
'23:08.881',-0.195,0.225
'23:08.883',-0.170,0.190
'23:08.886',-0.165,0.180
'23:08.889',-0.145,0.155
'23:08.892',-0.145,0.140
'23:08.894',-0.135,0.120
'23:08.897',-0.125,0.120
'23:08.900',-0.115,0.100
'23:08.903',-0.095,0.095
'23:08.906',-0.090,0.085
'23:08.908',-0.070,0.060
'23:08.911',-0.075,0.040
'23:08.914',-0.080,0.025
'23:08.917',-0.085,0.010
'23:08.919',-0.095,-0.020
'23:08.922',-0.110,-0.040
'23:08.925',-0.130,-0.065
'23:08.928',-0.140,-0.065
'23:08.931',-0.160,-0.080
'23:08.933',-0.165,-0.100
'23:08.936',-0.165,-0.090
'23:08.939',-0.185,-0.105
'23:08.942',-0.205,-0.115
'23:08.944',-0.215,-0.125
'23:08.947',-0.230,-0.145
'23:08.950',-0.250,-0.165
'23:08.953',-0.280,-0.175
'23:08.956',-0.305,-0.180
'23:08.958',-0.320,-0.195
'23:08.961',-0.350,-0.195
'23:08.964',-0.370,-0.195
'23:08.967',-0.385,-0.190
'23:08.969',-0.400,-0.180
'23:08.972',-0.425,-0.190
'23:08.975',-0.420,-0.180
'23:08.978',-0.425,-0.185
'23:08.981',-0.440,-0.185
'23:08.983',-0.470,-0.185
'23:08.986',-0.490,-0.210
'23:08.989',-0.500,-0.215
'23:08.992',-0.500,-0.215
'23:08.994',-0.510,-0.215
'23:08.997',-0.525,-0.200
'23:09.000',-0.525,-0.195
'23:09.003',-0.530,-0.185
'23:09.006',-0.525,-0.185
'23:09.008',-0.525,-0.180
'23:09.011',-0.525,-0.180
'23:09.014',-0.530,-0.185
'23:09.017',-0.535,-0.190
'23:09.019',-0.540,-0.195
'23:09.022',-0.535,-0.200
'23:09.025',-0.545,-0.210
'23:09.028',-0.555,-0.195
'23:09.031',-0.540,-0.195
'23:09.033',-0.545,-0.200
'23:09.036',-0.540,-0.190
'23:09.039',-0.535,-0.180
'23:09.042',-0.520,-0.190
'23:09.044',-0.515,-0.185
'23:09.047',-0.525,-0.195
'23:09.050',-0.520,-0.205
'23:09.053',-0.525,-0.210
'23:09.056',-0.555,-0.205
'23:09.058',-0.560,-0.220
'23:09.061',-0.560,-0.230
'23:09.064',-0.550,-0.205
'23:09.067',-0.545,-0.210
'23:09.069',-0.535,-0.195
'23:09.072',-0.525,-0.190
'23:09.075',-0.515,-0.195
'23:09.078',-0.510,-0.190
'23:09.081',-0.520,-0.200
'23:09.083',-0.530,-0.210
'23:09.086',-0.530,-0.220
'23:09.089',-0.540,-0.215
'23:09.092',-0.540,-0.225
'23:09.094',-0.555,-0.220
'23:09.097',-0.550,-0.215
'23:09.100',-0.540,-0.200
'23:09.103',-0.540,-0.205
'23:09.106',-0.535,-0.200
'23:09.108',-0.540,-0.205
'23:09.111',-0.530,-0.210
'23:09.114',-0.540,-0.210
'23:09.117',-0.545,-0.220
'23:09.119',-0.545,-0.235
'23:09.122',-0.555,-0.240
'23:09.125',-0.550,-0.240
'23:09.128',-0.550,-0.235
'23:09.131',-0.555,-0.240
'23:09.133',-0.555,-0.220
'23:09.136',-0.550,-0.205
'23:09.139',-0.545,-0.210
'23:09.142',-0.545,-0.200
'23:09.144',-0.535,-0.210
'23:09.147',-0.550,-0.215
'23:09.150',-0.550,-0.210
'23:09.153',-0.555,-0.225
'23:09.156',-0.565,-0.230
'23:09.158',-0.570,-0.230
'23:09.161',-0.575,-0.230
'23:09.164',-0.570,-0.240
'23:09.167',-0.565,-0.225
'23:09.169',-0.555,-0.230
'23:09.172',-0.555,-0.225
'23:09.175',-0.545,-0.220
'23:09.178',-0.545,-0.230
'23:09.181',-0.545,-0.230
'23:09.183',-0.555,-0.235
'23:09.186',-0.565,-0.235
'23:09.189',-0.580,-0.245
'23:09.192',-0.585,-0.240
'23:09.194',-0.575,-0.230
'23:09.197',-0.575,-0.230
'23:09.200',-0.565,-0.225
'23:09.203',-0.565,-0.215
'23:09.206',-0.550,-0.205
'23:09.208',-0.555,-0.215
'23:09.211',-0.555,-0.220
'23:09.214',-0.550,-0.215
'23:09.217',-0.555,-0.230
'23:09.219',-0.565,-0.225
'23:09.222',-0.555,-0.240
'23:09.225',-0.575,-0.235
'23:09.228',-0.565,-0.230
'23:09.231',-0.575,-0.230
'23:09.233',-0.570,-0.230
'23:09.236',-0.560,-0.220
'23:09.239',-0.555,-0.205
'23:09.242',-0.550,-0.205
'23:09.244',-0.540,-0.225
'23:09.247',-0.550,-0.225
'23:09.250',-0.550,-0.230
'23:09.253',-0.550,-0.225
'23:09.256',-0.555,-0.220
'23:09.258',-0.570,-0.240
'23:09.261',-0.580,-0.240
'23:09.264',-0.580,-0.235
'23:09.267',-0.575,-0.230
'23:09.269',-0.565,-0.220
'23:09.272',-0.550,-0.215
'23:09.275',-0.545,-0.205
'23:09.278',-0.535,-0.205
'23:09.281',-0.550,-0.200
'23:09.283',-0.550,-0.215
'23:09.286',-0.545,-0.220
'23:09.289',-0.555,-0.235
'23:09.292',-0.570,-0.230
'23:09.294',-0.565,-0.240
'23:09.297',-0.575,-0.225
'23:09.300',-0.560,-0.230
'23:09.303',-0.565,-0.215
'23:09.306',-0.545,-0.210
'23:09.308',-0.545,-0.205
'23:09.311',-0.535,-0.210
'23:09.314',-0.535,-0.205
'23:09.317',-0.535,-0.215
'23:09.319',-0.545,-0.215
'23:09.322',-0.555,-0.230
'23:09.325',-0.555,-0.235
'23:09.328',-0.555,-0.230
'23:09.331',-0.555,-0.220
'23:09.333',-0.550,-0.210
'23:09.336',-0.540,-0.195
'23:09.339',-0.520,-0.195
'23:09.342',-0.505,-0.185
'23:09.344',-0.500,-0.190
'23:09.347',-0.495,-0.190
'23:09.350',-0.485,-0.190
'23:09.353',-0.490,-0.185
'23:09.356',-0.500,-0.185
'23:09.358',-0.510,-0.185
'23:09.361',-0.505,-0.180
'23:09.364',-0.500,-0.175
'23:09.367',-0.485,-0.155
'23:09.369',-0.485,-0.150
'23:09.372',-0.470,-0.135
'23:09.375',-0.460,-0.130
'23:09.378',-0.450,-0.145
'23:09.381',-0.425,-0.155
'23:09.383',-0.415,-0.165
'23:09.386',-0.405,-0.190
'23:09.389',-0.410,-0.195
'23:09.392',-0.415,-0.225
'23:09.394',-0.420,-0.240
'23:09.397',-0.425,-0.250
'23:09.400',-0.430,-0.255
'23:09.403',-0.430,-0.250
'23:09.406',-0.440,-0.240
'23:09.408',-0.430,-0.220
'23:09.411',-0.455,-0.215
'23:09.414',-0.475,-0.220
'23:09.417',-0.485,-0.205
'23:09.419',-0.510,-0.220
'23:09.422',-0.520,-0.220
'23:09.425',-0.540,-0.225
'23:09.428',-0.545,-0.225
'23:09.431',-0.565,-0.220
'23:09.433',-0.575,-0.205
'23:09.436',-0.570,-0.190
'23:09.439',-0.570,-0.180
'23:09.442',-0.570,-0.180
'23:09.444',-0.575,-0.185
'23:09.447',-0.575,-0.185
'23:09.450',-0.565,-0.190
'23:09.453',-0.560,-0.205
'23:09.456',-0.570,-0.215
'23:09.458',-0.580,-0.220
'23:09.461',-0.575,-0.220
'23:09.464',-0.570,-0.215
'23:09.467',-0.570,-0.205
'23:09.469',-0.560,-0.200
'23:09.472',-0.555,-0.195
'23:09.475',-0.545,-0.190
'23:09.478',-0.540,-0.195
'23:09.481',-0.530,-0.190
'23:09.483',-0.515,-0.205
'23:09.486',-0.515,-0.210
'23:09.489',-0.505,-0.230
'23:09.492',-0.490,-0.225
'23:09.494',-0.490,-0.225
'23:09.497',-0.455,-0.225
'23:09.500',-0.420,-0.220
'23:09.503',-0.360,-0.210
'23:09.506',-0.300,-0.200
'23:09.508',-0.215,-0.195
'23:09.511',-0.140,-0.200
'23:09.514',-0.040,-0.210
'23:09.517',0.080,-0.210
'23:09.519',0.230,-0.230
'23:09.522',0.415,-0.255
'23:09.525',0.565,-0.290
'23:09.528',0.720,-0.350
'23:09.531',0.850,-0.430
'23:09.533',0.930,-0.505
'23:09.536',1.035,-0.610
'23:09.539',1.155,-0.695
'23:09.542',1.280,-0.795
'23:09.544',1.335,-0.890
'23:09.547',1.245,-1.005
'23:09.550',0.980,-1.085
'23:09.553',0.605,-1.165
'23:09.556',0.145,-1.185
'23:09.558',-0.280,-1.155
'23:09.561',-0.605,-1.110
'23:09.564',-0.820,-1.025
'23:09.567',-0.875,-0.925
'23:09.569',-0.865,-0.825
'23:09.572',-0.800,-0.735
'23:09.575',-0.740,-0.670
'23:09.578',-0.685,-0.605
'23:09.581',-0.660,-0.550
'23:09.583',-0.650,-0.505
'23:09.586',-0.640,-0.455
'23:09.589',-0.650,-0.390
'23:09.592',-0.660,-0.345
'23:09.594',-0.675,-0.295
'23:09.597',-0.675,-0.255
'23:09.600',-0.680,-0.240
'23:09.603',-0.680,-0.235
'23:09.606',-0.680,-0.230
'23:09.608',-0.675,-0.215
'23:09.611',-0.670,-0.220
'23:09.614',-0.670,-0.220
'23:09.617',-0.670,-0.230
'23:09.619',-0.675,-0.215
'23:09.622',-0.680,-0.215
'23:09.625',-0.695,-0.210
'23:09.628',-0.700,-0.225
'23:09.631',-0.695,-0.215
'23:09.633',-0.700,-0.210
'23:09.636',-0.700,-0.195
'23:09.639',-0.690,-0.190
'23:09.642',-0.700,-0.195
'23:09.644',-0.695,-0.190
'23:09.647',-0.690,-0.195
'23:09.650',-0.700,-0.210
'23:09.653',-0.720,-0.210
'23:09.656',-0.715,-0.220
'23:09.658',-0.715,-0.225
'23:09.661',-0.735,-0.210
'23:09.664',-0.730,-0.220
'23:09.667',-0.735,-0.210
'23:09.669',-0.740,-0.195
'23:09.672',-0.735,-0.185
'23:09.675',-0.730,-0.195
'23:09.678',-0.730,-0.190
'23:09.681',-0.730,-0.190
'23:09.683',-0.735,-0.200
'23:09.686',-0.745,-0.205
'23:09.689',-0.760,-0.200
'23:09.692',-0.775,-0.215
'23:09.694',-0.770,-0.210
'23:09.697',-0.775,-0.215
'23:09.700',-0.780,-0.205
'23:09.703',-0.770,-0.195
'23:09.706',-0.770,-0.175
'23:09.708',-0.765,-0.190
'23:09.711',-0.755,-0.170
'23:09.714',-0.765,-0.190
'23:09.717',-0.775,-0.200
'23:09.719',-0.785,-0.195
'23:09.722',-0.800,-0.195
'23:09.725',-0.815,-0.200
'23:09.728',-0.835,-0.210
'23:09.731',-0.840,-0.195
'23:09.733',-0.825,-0.195
'23:09.736',-0.835,-0.175
'23:09.739',-0.830,-0.175
'23:09.742',-0.830,-0.165
'23:09.744',-0.835,-0.170
'23:09.747',-0.840,-0.170
'23:09.750',-0.825,-0.155
'23:09.753',-0.840,-0.180
'23:09.756',-0.850,-0.185
'23:09.758',-0.860,-0.180
'23:09.761',-0.875,-0.175
'23:09.764',-0.870,-0.175
'23:09.767',-0.855,-0.170
'23:09.769',-0.850,-0.160
'23:09.772',-0.855,-0.140
'23:09.775',-0.850,-0.130
'23:09.778',-0.845,-0.135
'23:09.781',-0.835,-0.140
'23:09.783',-0.840,-0.135
'23:09.786',-0.845,-0.145
'23:09.789',-0.845,-0.145
'23:09.792',-0.855,-0.160
'23:09.794',-0.845,-0.145
'23:09.797',-0.840,-0.140
'23:09.800',-0.830,-0.130
'23:09.803',-0.815,-0.125
'23:09.806',-0.800,-0.125
'23:09.808',-0.785,-0.115
'23:09.811',-0.760,-0.120
'23:09.814',-0.755,-0.130
'23:09.817',-0.745,-0.125
'23:09.819',-0.730,-0.140
'23:09.822',-0.725,-0.140
'23:09.825',-0.720,-0.145
'23:09.828',-0.705,-0.150
'23:09.831',-0.690,-0.150
'23:09.833',-0.675,-0.140
'23:09.836',-0.640,-0.150
'23:09.839',-0.635,-0.135
'23:09.842',-0.605,-0.140
'23:09.844',-0.585,-0.155
'23:09.847',-0.585,-0.160
'23:09.850',-0.570,-0.155
'23:09.853',-0.580,-0.175
'23:09.856',-0.575,-0.190
'23:09.858',-0.575,-0.195
'23:09.861',-0.580,-0.200
'23:09.864',-0.575,-0.210
'23:09.867',-0.575,-0.210
'23:09.869',-0.565,-0.205
'23:09.872',-0.555,-0.200
'23:09.875',-0.545,-0.195
'23:09.878',-0.530,-0.205
'23:09.881',-0.530,-0.210
'23:09.883',-0.530,-0.220
'23:09.886',-0.535,-0.230
'23:09.889',-0.555,-0.240
'23:09.892',-0.575,-0.235
'23:09.894',-0.575,-0.250
'23:09.897',-0.555,-0.235
'23:09.900',-0.570,-0.235
'23:09.903',-0.550,-0.230
'23:09.906',-0.545,-0.225
'23:09.908',-0.535,-0.235
'23:09.911',-0.540,-0.235
'23:09.914',-0.540,-0.230
'23:09.917',-0.540,-0.245
'23:09.919',-0.550,-0.255
'23:09.922',-0.560,-0.265
'23:09.925',-0.565,-0.275
'23:09.928',-0.585,-0.270
'23:09.931',-0.575,-0.265
'23:09.933',-0.575,-0.265
'23:09.936',-0.565,-0.260
'23:09.939',-0.560,-0.260
'23:09.942',-0.565,-0.255
'23:09.944',-0.570,-0.250
'23:09.947',-0.570,-0.265
'23:09.950',-0.575,-0.265
'23:09.953',-0.580,-0.280
'23:09.956',-0.590,-0.285
'23:09.958',-0.605,-0.295
'23:09.961',-0.625,-0.295
'23:09.964',-0.635,-0.285
'23:09.967',-0.625,-0.275
'23:09.969',-0.630,-0.280
'23:09.972',-0.620,-0.270
'23:09.975',-0.635,-0.255
'23:09.978',-0.615,-0.265
'23:09.981',-0.610,-0.285
'23:09.983',-0.620,-0.280
'23:09.986',-0.610,-0.290
'23:09.989',-0.615,-0.300
'23:09.992',-0.625,-0.310
'23:09.994',-0.630,-0.315
'23:09.997',-0.635,-0.315
'23:10.000',-0.640,-0.320
'23:10.003',-0.665,-0.300
'23:10.006',-0.670,-0.295
'23:10.008',-0.670,-0.300
'23:10.011',-0.655,-0.300
'23:10.014',-0.620,-0.335
'23:10.017',-0.525,-0.390
'23:10.019',-0.415,-0.475
'23:10.022',-0.265,-0.610
'23:10.025',-0.125,-0.755
'23:10.028',-0.005,-0.910
'23:10.031',0.085,-1.045
'23:10.033',0.155,-1.120
'23:10.036',0.210,-1.190
'23:10.039',0.220,-1.225
'23:10.042',0.180,-1.245
'23:10.044',0.100,-1.255
'23:10.047',-0.030,-1.245
'23:10.050',-0.175,-1.240
'23:10.053',-0.300,-1.200
'23:10.056',-0.395,-1.160
'23:10.058',-0.500,-1.145
'23:10.061',-0.570,-1.125
'23:10.064',-0.670,-1.105
'23:10.067',-0.800,-1.085
'23:10.069',-0.930,-1.050
'23:10.072',-1.065,-1.020
'23:10.075',-1.170,-0.975
'23:10.078',-1.250,-0.945
'23:10.081',-1.280,-0.915
'23:10.083',-1.300,-0.895
'23:10.086',-1.270,-0.870
'23:10.089',-1.220,-0.870
'23:10.092',-1.180,-0.855
'23:10.094',-1.140,-0.820
'23:10.097',-1.105,-0.800
'23:10.100',-1.070,-0.765
'23:10.103',-1.070,-0.720
'23:10.106',-1.070,-0.690
'23:10.108',-1.070,-0.660
'23:10.111',-1.070,-0.620
'23:10.114',-1.045,-0.580
'23:10.117',-1.015,-0.530
'23:10.119',-0.995,-0.500
'23:10.122',-0.965,-0.465
'23:10.125',-0.940,-0.430
'23:10.128',-0.915,-0.400
'23:10.131',-0.885,-0.365
'23:10.133',-0.870,-0.345
'23:10.136',-0.835,-0.310
'23:10.139',-0.785,-0.280
'23:10.142',-0.760,-0.250
'23:10.144',-0.735,-0.235
'23:10.147',-0.720,-0.210
'23:10.150',-0.700,-0.190
'23:10.153',-0.695,-0.150
'23:10.156',-0.685,-0.145
'23:10.158',-0.685,-0.120
'23:10.161',-0.670,-0.105
'23:10.164',-0.680,-0.085
'23:10.167',-0.680,-0.080
'23:10.169',-0.695,-0.070
'23:10.172',-0.680,-0.060
'23:10.175',-0.675,-0.045
'23:10.178',-0.675,-0.040
'23:10.181',-0.665,-0.040
'23:10.183',-0.670,-0.020
'23:10.186',-0.680,-0.040
'23:10.189',-0.685,-0.030
'23:10.192',-0.680,-0.030
'23:10.194',-0.695,-0.020
'23:10.197',-0.695,-0.015
'23:10.200',-0.690,-0.005
'23:10.203',-0.685,0.000
'23:10.206',-0.690,0.015
'23:10.208',-0.685,0.040
'23:10.211',-0.670,0.040
'23:10.214',-0.680,0.045
'23:10.217',-0.685,0.040
'23:10.219',-0.695,0.050
'23:10.222',-0.690,0.060
'23:10.225',-0.700,0.075
'23:10.228',-0.720,0.080
'23:10.231',-0.700,0.095
'23:10.233',-0.695,0.115
'23:10.236',-0.690,0.130
'23:10.239',-0.685,0.155
'23:10.242',-0.680,0.170
'23:10.244',-0.675,0.175
'23:10.247',-0.665,0.175
'23:10.250',-0.655,0.195
'23:10.253',-0.660,0.185
'23:10.256',-0.655,0.195
'23:10.258',-0.660,0.190
'23:10.261',-0.670,0.195
'23:10.264',-0.650,0.210
'23:10.267',-0.630,0.225
'23:10.269',-0.620,0.235
'23:10.272',-0.595,0.245
'23:10.275',-0.570,0.250
'23:10.278',-0.545,0.260
'23:10.281',-0.520,0.255
'23:10.283',-0.495,0.245
'23:10.286',-0.475,0.240
'23:10.289',-0.450,0.240
'23:10.292',-0.440,0.240
'23:10.294',-0.420,0.220
'23:10.297',-0.415,0.230
'23:10.300',-0.380,0.235
'23:10.303',-0.365,0.235
'23:10.306',-0.340,0.235
'23:10.308',-0.320,0.230
'23:10.311',-0.280,0.230
'23:10.314',-0.245,0.200
'23:10.317',-0.235,0.180
'23:10.319',-0.220,0.170
'23:10.322',-0.210,0.145
'23:10.325',-0.200,0.135
'23:10.328',-0.195,0.120
'23:10.331',-0.165,0.110
'23:10.333',-0.160,0.100
'23:10.336',-0.145,0.090
'23:10.339',-0.140,0.070
'23:10.342',-0.120,0.070
'23:10.344',-0.115,0.045
'23:10.347',-0.110,0.025
'23:10.350',-0.110,0.005
'23:10.353',-0.120,-0.020
'23:10.356',-0.130,-0.030
'23:10.358',-0.145,-0.065
'23:10.361',-0.155,-0.075
'23:10.364',-0.160,-0.080
'23:10.367',-0.160,-0.085
'23:10.369',-0.175,-0.090
'23:10.372',-0.190,-0.095
'23:10.375',-0.190,-0.100
'23:10.378',-0.210,-0.115
'23:10.381',-0.220,-0.150
'23:10.383',-0.245,-0.145
'23:10.386',-0.280,-0.170
'23:10.389',-0.290,-0.180
'23:10.392',-0.310,-0.185
'23:10.394',-0.345,-0.195
'23:10.397',-0.355,-0.200
'23:10.400',-0.380,-0.200
'23:10.403',-0.390,-0.190
'23:10.406',-0.390,-0.200
'23:10.408',-0.405,-0.190
'23:10.411',-0.420,-0.200
'23:10.414',-0.440,-0.205
'23:10.417',-0.440,-0.220
'23:10.419',-0.475,-0.220
'23:10.422',-0.480,-0.235
'23:10.425',-0.495,-0.230
'23:10.428',-0.510,-0.235
'23:10.431',-0.520,-0.225
'23:10.433',-0.530,-0.225
'23:10.436',-0.530,-0.220
'23:10.439',-0.525,-0.205
'23:10.442',-0.540,-0.200
'23:10.444',-0.535,-0.200
'23:10.447',-0.540,-0.210
'23:10.450',-0.535,-0.215
'23:10.453',-0.540,-0.215
'23:10.456',-0.540,-0.220
'23:10.458',-0.560,-0.245
'23:10.461',-0.560,-0.235
'23:10.464',-0.565,-0.225
'23:10.467',-0.565,-0.220
'23:10.469',-0.565,-0.220
'23:10.472',-0.555,-0.205
'23:10.475',-0.550,-0.200
'23:10.478',-0.540,-0.205
'23:10.481',-0.570,-0.210
'23:10.483',-0.565,-0.215
'23:10.486',-0.565,-0.225
'23:10.489',-0.565,-0.215
'23:10.492',-0.575,-0.230
'23:10.494',-0.585,-0.230
'23:10.497',-0.575,-0.225
'23:10.500',-0.570,-0.225
'23:10.503',-0.565,-0.215
'23:10.506',-0.570,-0.215
'23:10.508',-0.555,-0.210
'23:10.511',-0.565,-0.220
'23:10.514',-0.555,-0.225
'23:10.517',-0.550,-0.235
'23:10.519',-0.560,-0.235
'23:10.522',-0.560,-0.255
'23:10.525',-0.565,-0.255
'23:10.528',-0.565,-0.260
'23:10.531',-0.560,-0.255
'23:10.533',-0.570,-0.240
'23:10.536',-0.560,-0.240
'23:10.539',-0.560,-0.240
'23:10.542',-0.560,-0.230
'23:10.544',-0.540,-0.240
'23:10.547',-0.540,-0.245
'23:10.550',-0.550,-0.255
'23:10.553',-0.570,-0.260
'23:10.556',-0.575,-0.260
'23:10.558',-0.580,-0.265
'23:10.561',-0.590,-0.265
'23:10.564',-0.585,-0.265
'23:10.567',-0.590,-0.265
'23:10.569',-0.570,-0.255
'23:10.572',-0.565,-0.250
'23:10.575',-0.565,-0.240
'23:10.578',-0.560,-0.250
'23:10.581',-0.555,-0.255
'23:10.583',-0.560,-0.255
'23:10.586',-0.570,-0.265
'23:10.589',-0.570,-0.270
'23:10.592',-0.585,-0.280
'23:10.594',-0.590,-0.280
'23:10.597',-0.590,-0.270
'23:10.600',-0.585,-0.260
'23:10.603',-0.580,-0.270
'23:10.606',-0.580,-0.265
'23:10.608',-0.570,-0.250
'23:10.611',-0.580,-0.255
'23:10.614',-0.580,-0.250
'23:10.617',-0.570,-0.265
'23:10.619',-0.580,-0.270
'23:10.622',-0.605,-0.270
'23:10.625',-0.605,-0.280
'23:10.628',-0.595,-0.290
'23:10.631',-0.590,-0.270
'23:10.633',-0.585,-0.275
'23:10.636',-0.590,-0.275
'23:10.639',-0.585,-0.255
'23:10.642',-0.580,-0.260
'23:10.644',-0.570,-0.260
'23:10.647',-0.570,-0.270
'23:10.650',-0.575,-0.275
'23:10.653',-0.575,-0.270
'23:10.656',-0.590,-0.285
'23:10.658',-0.590,-0.275
'23:10.661',-0.600,-0.280
'23:10.664',-0.600,-0.280
'23:10.667',-0.590,-0.265
'23:10.669',-0.590,-0.265
'23:10.672',-0.590,-0.260
'23:10.675',-0.585,-0.255
'23:10.678',-0.575,-0.245
'23:10.681',-0.585,-0.260
'23:10.683',-0.580,-0.260
'23:10.686',-0.605,-0.270
'23:10.689',-0.595,-0.275
'23:10.692',-0.600,-0.295
'23:10.694',-0.600,-0.270
'23:10.697',-0.610,-0.275
'23:10.700',-0.595,-0.270
'23:10.703',-0.600,-0.270
'23:10.706',-0.590,-0.250
'23:10.708',-0.580,-0.250
'23:10.711',-0.580,-0.240
'23:10.714',-0.570,-0.265
'23:10.717',-0.580,-0.275
'23:10.719',-0.590,-0.265
'23:10.722',-0.590,-0.280
'23:10.725',-0.600,-0.285
'23:10.728',-0.605,-0.280
'23:10.731',-0.600,-0.275
'23:10.733',-0.600,-0.270
'23:10.736',-0.600,-0.280
'23:10.739',-0.595,-0.270
'23:10.742',-0.585,-0.245
'23:10.744',-0.575,-0.260
'23:10.747',-0.575,-0.270
'23:10.750',-0.575,-0.260
'23:10.753',-0.580,-0.280
'23:10.756',-0.590,-0.280
'23:10.758',-0.590,-0.280
'23:10.761',-0.600,-0.275
'23:10.764',-0.600,-0.270
'23:10.767',-0.590,-0.265
'23:10.769',-0.565,-0.270
'23:10.772',-0.560,-0.260
'23:10.775',-0.550,-0.235
'23:10.778',-0.545,-0.245
'23:10.781',-0.550,-0.250
'23:10.783',-0.555,-0.245
'23:10.786',-0.560,-0.245
'23:10.789',-0.570,-0.240
'23:10.792',-0.545,-0.235
'23:10.794',-0.550,-0.240
'23:10.797',-0.555,-0.225
'23:10.800',-0.550,-0.215
'23:10.803',-0.545,-0.200
'23:10.806',-0.515,-0.190
'23:10.808',-0.510,-0.175
'23:10.811',-0.490,-0.175
'23:10.814',-0.465,-0.185
'23:10.817',-0.470,-0.200
'23:10.819',-0.455,-0.220
'23:10.822',-0.445,-0.235
'23:10.825',-0.450,-0.250
'23:10.828',-0.455,-0.280
'23:10.831',-0.460,-0.295
'23:10.833',-0.475,-0.315
'23:10.836',-0.470,-0.310
'23:10.839',-0.470,-0.325
'23:10.842',-0.480,-0.310
'23:10.844',-0.475,-0.305
'23:10.847',-0.485,-0.295
'23:10.850',-0.505,-0.290
'23:10.853',-0.525,-0.275
'23:10.856',-0.540,-0.275
'23:10.858',-0.560,-0.285
'23:10.861',-0.570,-0.285
'23:10.864',-0.585,-0.275
'23:10.867',-0.610,-0.275
'23:10.869',-0.620,-0.265
'23:10.872',-0.630,-0.255
'23:10.875',-0.635,-0.245
'23:10.878',-0.630,-0.240
'23:10.881',-0.630,-0.245
'23:10.883',-0.640,-0.245
'23:10.886',-0.645,-0.250
'23:10.889',-0.640,-0.260
'23:10.892',-0.660,-0.265
'23:10.894',-0.670,-0.270
'23:10.897',-0.645,-0.270
'23:10.900',-0.645,-0.255
'23:10.903',-0.630,-0.255
'23:10.906',-0.620,-0.255
'23:10.908',-0.615,-0.245
'23:10.911',-0.600,-0.245
'23:10.914',-0.595,-0.255
'23:10.917',-0.595,-0.250
'23:10.919',-0.615,-0.260
'23:10.922',-0.610,-0.275
'23:10.925',-0.595,-0.290
'23:10.928',-0.595,-0.275
'23:10.931',-0.565,-0.280
'23:10.933',-0.545,-0.285
'23:10.936',-0.500,-0.265
'23:10.939',-0.460,-0.275
'23:10.942',-0.385,-0.270
'23:10.944',-0.285,-0.270
'23:10.947',-0.180,-0.290
'23:10.950',-0.080,-0.285
'23:10.953',0.055,-0.315
'23:10.956',0.190,-0.330
'23:10.958',0.355,-0.370
'23:10.961',0.515,-0.415
'23:10.964',0.670,-0.485
'23:10.967',0.800,-0.570
'23:10.969',0.910,-0.670
'23:10.972',1.025,-0.780
'23:10.975',1.190,-0.865
'23:10.978',1.330,-0.975
'23:10.981',1.410,-1.085
'23:10.983',1.355,-1.190
'23:10.986',1.140,-1.295
'23:10.989',0.775,-1.370
'23:10.992',0.340,-1.415
'23:10.994',-0.115,-1.410
'23:10.997',-0.500,-1.355
'23:11.000',-0.740,-1.275
'23:11.003',-0.875,-1.160
'23:11.006',-0.900,-1.055
'23:11.008',-0.870,-0.940
'23:11.011',-0.815,-0.845
'23:11.014',-0.765,-0.775
'23:11.017',-0.740,-0.700
'23:11.019',-0.715,-0.635
'23:11.022',-0.705,-0.570
'23:11.025',-0.715,-0.490
'23:11.028',-0.735,-0.430
'23:11.031',-0.755,-0.360
'23:11.033',-0.755,-0.325
'23:11.036',-0.745,-0.305
'23:11.039',-0.755,-0.285
'23:11.042',-0.755,-0.280
'23:11.044',-0.760,-0.280
'23:11.047',-0.750,-0.300
'23:11.050',-0.750,-0.275
'23:11.053',-0.750,-0.275
'23:11.056',-0.770,-0.270
'23:11.058',-0.780,-0.270
'23:11.061',-0.785,-0.275
'23:11.064',-0.780,-0.260
'23:11.067',-0.785,-0.260
'23:11.069',-0.790,-0.255
'23:11.072',-0.785,-0.250
'23:11.075',-0.770,-0.245
'23:11.078',-0.770,-0.240
'23:11.081',-0.770,-0.245
'23:11.083',-0.780,-0.240
'23:11.086',-0.780,-0.250
'23:11.089',-0.795,-0.270
'23:11.092',-0.800,-0.265
'23:11.094',-0.810,-0.270
'23:11.097',-0.810,-0.260
'23:11.100',-0.820,-0.250
'23:11.103',-0.805,-0.245
'23:11.106',-0.815,-0.230
'23:11.108',-0.810,-0.235
'23:11.111',-0.800,-0.235
'23:11.114',-0.805,-0.240
'23:11.117',-0.800,-0.240
'23:11.119',-0.805,-0.240
'23:11.122',-0.820,-0.250
'23:11.125',-0.835,-0.255
'23:11.128',-0.840,-0.275
'23:11.131',-0.860,-0.250
'23:11.133',-0.850,-0.245
'23:11.136',-0.860,-0.230
'23:11.139',-0.860,-0.230
'23:11.142',-0.865,-0.215
'23:11.144',-0.870,-0.230
'23:11.147',-0.875,-0.220
'23:11.150',-0.870,-0.225
'23:11.153',-0.880,-0.230
'23:11.156',-0.885,-0.235
'23:11.158',-0.905,-0.245
'23:11.161',-0.905,-0.240
'23:11.164',-0.905,-0.230
'23:11.167',-0.915,-0.235
'23:11.169',-0.910,-0.215
'23:11.172',-0.910,-0.215
'23:11.175',-0.915,-0.205
'23:11.178',-0.900,-0.210
'23:11.181',-0.910,-0.210
'23:11.183',-0.900,-0.205
'23:11.186',-0.920,-0.205
'23:11.189',-0.935,-0.225
'23:11.192',-0.940,-0.225
'23:11.194',-0.945,-0.225
'23:11.197',-0.950,-0.205
'23:11.200',-0.945,-0.210
'23:11.203',-0.955,-0.190
'23:11.206',-0.935,-0.175
'23:11.208',-0.925,-0.175
'23:11.211',-0.930,-0.165
'23:11.214',-0.920,-0.175
'23:11.217',-0.915,-0.175
'23:11.219',-0.920,-0.180
'23:11.222',-0.915,-0.185
'23:11.225',-0.920,-0.180
'23:11.228',-0.935,-0.175
'23:11.231',-0.920,-0.165
'23:11.233',-0.910,-0.165
'23:11.236',-0.895,-0.160
'23:11.239',-0.880,-0.150
'23:11.242',-0.855,-0.135
'23:11.244',-0.850,-0.140
'23:11.247',-0.825,-0.150
'23:11.250',-0.820,-0.145
'23:11.253',-0.795,-0.160
'23:11.256',-0.790,-0.160
'23:11.258',-0.785,-0.175
'23:11.261',-0.775,-0.185
'23:11.264',-0.750,-0.195
'23:11.267',-0.735,-0.190
'23:11.269',-0.725,-0.175
'23:11.272',-0.695,-0.180
'23:11.275',-0.680,-0.185
'23:11.278',-0.655,-0.180
'23:11.281',-0.640,-0.205
'23:11.283',-0.630,-0.205
'23:11.286',-0.625,-0.220
'23:11.289',-0.640,-0.225
'23:11.292',-0.620,-0.235
'23:11.294',-0.630,-0.245
'23:11.297',-0.630,-0.225
'23:11.300',-0.615,-0.240
'23:11.303',-0.605,-0.235
'23:11.306',-0.595,-0.230
'23:11.308',-0.595,-0.230
'23:11.311',-0.585,-0.235
'23:11.314',-0.585,-0.255
'23:11.317',-0.580,-0.245
'23:11.319',-0.580,-0.275
'23:11.322',-0.600,-0.280
'23:11.325',-0.610,-0.290
'23:11.328',-0.600,-0.290
'23:11.331',-0.605,-0.300
'23:11.333',-0.605,-0.295
'23:11.336',-0.580,-0.285
'23:11.339',-0.580,-0.285
'23:11.342',-0.570,-0.270
'23:11.344',-0.565,-0.270
'23:11.347',-0.570,-0.285
'23:11.350',-0.575,-0.295
'23:11.353',-0.580,-0.300
'23:11.356',-0.580,-0.305
'23:11.358',-0.595,-0.305
'23:11.361',-0.610,-0.315
'23:11.364',-0.605,-0.305
'23:11.367',-0.600,-0.300
'23:11.369',-0.605,-0.295
'23:11.372',-0.600,-0.305
'23:11.375',-0.610,-0.290
'23:11.378',-0.595,-0.295
'23:11.381',-0.600,-0.295
'23:11.383',-0.600,-0.290
'23:11.386',-0.600,-0.300
'23:11.389',-0.615,-0.315
'23:11.392',-0.610,-0.325
'23:11.394',-0.630,-0.335
'23:11.397',-0.630,-0.320
'23:11.400',-0.635,-0.310
'23:11.403',-0.630,-0.300
'23:11.406',-0.635,-0.300
'23:11.408',-0.620,-0.285
'23:11.411',-0.630,-0.290
'23:11.414',-0.630,-0.300
'23:11.417',-0.645,-0.300
'23:11.419',-0.655,-0.305
'23:11.422',-0.650,-0.315
'23:11.425',-0.650,-0.315
'23:11.428',-0.660,-0.330
'23:11.431',-0.640,-0.320
'23:11.433',-0.650,-0.315
'23:11.436',-0.640,-0.315
'23:11.439',-0.640,-0.330
'23:11.442',-0.655,-0.320
'23:11.444',-0.640,-0.310
'23:11.447',-0.655,-0.315
'23:11.450',-0.645,-0.325
'23:11.453',-0.645,-0.335
'23:11.456',-0.600,-0.375
'23:11.458',-0.530,-0.450
'23:11.461',-0.415,-0.540
'23:11.464',-0.280,-0.675
'23:11.467',-0.130,-0.830
'23:11.469',-0.005,-0.975
'23:11.472',0.065,-1.105
'23:11.475',0.120,-1.195
'23:11.478',0.155,-1.255
'23:11.481',0.125,-1.305
'23:11.483',0.055,-1.315
'23:11.486',-0.070,-1.320
'23:11.489',-0.225,-1.300
'23:11.492',-0.370,-1.265
'23:11.494',-0.495,-1.210
'23:11.497',-0.610,-1.170
'23:11.500',-0.720,-1.135
'23:11.503',-0.825,-1.090
'23:11.506',-0.955,-1.060
'23:11.508',-1.075,-1.040
'23:11.511',-1.175,-1.000
'23:11.514',-1.245,-0.975
'23:11.517',-1.285,-0.955
'23:11.519',-1.285,-0.930
'23:11.522',-1.260,-0.925
'23:11.525',-1.215,-0.885
'23:11.528',-1.175,-0.880
'23:11.531',-1.145,-0.840
'23:11.533',-1.095,-0.800
'23:11.536',-1.070,-0.750
'23:11.539',-1.055,-0.690
'23:11.542',-1.040,-0.630
'23:11.544',-1.025,-0.560
'23:11.547',-1.010,-0.510
'23:11.550',-0.975,-0.460
'23:11.553',-0.945,-0.430
'23:11.556',-0.905,-0.390
'23:11.558',-0.875,-0.375
'23:11.561',-0.860,-0.360
'23:11.564',-0.820,-0.320
'23:11.567',-0.800,-0.300
'23:11.569',-0.765,-0.270
'23:11.572',-0.725,-0.235
'23:11.575',-0.695,-0.190
'23:11.578',-0.655,-0.175
'23:11.581',-0.645,-0.145
'23:11.583',-0.635,-0.120
'23:11.586',-0.635,-0.110
'23:11.589',-0.645,-0.090
'23:11.592',-0.655,-0.095
'23:11.594',-0.650,-0.090
'23:11.597',-0.650,-0.080
'23:11.600',-0.660,-0.085
'23:11.603',-0.650,-0.065
'23:11.606',-0.640,-0.050
'23:11.608',-0.645,-0.040
'23:11.611',-0.630,-0.020
'23:11.614',-0.635,-0.025
'23:11.617',-0.630,-0.015
'23:11.619',-0.640,-0.035
'23:11.622',-0.645,-0.020
'23:11.625',-0.655,-0.015
'23:11.628',-0.645,-0.005
'23:11.631',-0.640,0.010
'23:11.633',-0.645,0.010
'23:11.636',-0.650,0.035
'23:11.639',-0.635,0.055
'23:11.642',-0.635,0.075
'23:11.644',-0.625,0.085
'23:11.647',-0.615,0.095
'23:11.650',-0.615,0.105
'23:11.653',-0.620,0.095
'23:11.656',-0.620,0.105
'23:11.658',-0.620,0.120
'23:11.661',-0.640,0.135
'23:11.664',-0.630,0.145
'23:11.667',-0.620,0.170
'23:11.669',-0.615,0.190
'23:11.672',-0.585,0.195
'23:11.675',-0.555,0.200
'23:11.678',-0.545,0.220
'23:11.681',-0.530,0.205
'23:11.683',-0.520,0.235
'23:11.686',-0.510,0.230
'23:11.689',-0.495,0.235
'23:11.692',-0.485,0.220
'23:11.694',-0.475,0.225
'23:11.697',-0.455,0.235
'23:11.700',-0.430,0.240
'23:11.703',-0.390,0.245
'23:11.706',-0.355,0.245
'23:11.708',-0.330,0.260
'23:11.711',-0.290,0.260
'23:11.714',-0.265,0.245
'23:11.717',-0.245,0.240
'23:11.719',-0.235,0.220
'23:11.722',-0.205,0.215
'23:11.725',-0.190,0.190
'23:11.728',-0.175,0.185
'23:11.731',-0.145,0.175
'23:11.733',-0.145,0.160
'23:11.736',-0.120,0.160
'23:11.739',-0.085,0.140
'23:11.742',-0.070,0.140
'23:11.744',-0.050,0.120
'23:11.747',-0.030,0.100
'23:11.750',-0.020,0.085
'23:11.753',-0.025,0.060
'23:11.756',-0.025,0.035
'23:11.758',-0.030,0.015
'23:11.761',-0.035,-0.010
'23:11.764',-0.050,-0.010
'23:11.767',-0.050,-0.025
'23:11.769',-0.060,-0.035
'23:11.772',-0.060,-0.040
'23:11.775',-0.065,-0.050
'23:11.778',-0.065,-0.065
'23:11.781',-0.085,-0.075
'23:11.783',-0.100,-0.105
'23:11.786',-0.120,-0.105
'23:11.789',-0.130,-0.125
'23:11.792',-0.155,-0.150
'23:11.794',-0.175,-0.145
'23:11.797',-0.205,-0.165
'23:11.800',-0.210,-0.160
'23:11.803',-0.230,-0.170
'23:11.806',-0.260,-0.175
'23:11.808',-0.275,-0.165
'23:11.811',-0.295,-0.175
'23:11.814',-0.305,-0.180
'23:11.817',-0.310,-0.185
'23:11.819',-0.335,-0.195
'23:11.822',-0.360,-0.200
'23:11.825',-0.385,-0.210
'23:11.828',-0.415,-0.220
'23:11.831',-0.435,-0.210
'23:11.833',-0.435,-0.200
'23:11.836',-0.440,-0.200
'23:11.839',-0.440,-0.190
'23:11.842',-0.455,-0.200
'23:11.844',-0.450,-0.200
'23:11.847',-0.465,-0.190
'23:11.850',-0.455,-0.190
'23:11.853',-0.470,-0.200
'23:11.856',-0.480,-0.205
'23:11.858',-0.485,-0.195
'23:11.861',-0.490,-0.205
'23:11.864',-0.505,-0.205
'23:11.867',-0.505,-0.200
'23:11.869',-0.495,-0.185
'23:11.872',-0.500,-0.180
'23:11.875',-0.485,-0.180
'23:11.878',-0.485,-0.175
'23:11.881',-0.485,-0.180
'23:11.883',-0.470,-0.180
'23:11.886',-0.495,-0.200
'23:11.889',-0.505,-0.200
'23:11.892',-0.505,-0.215
'23:11.894',-0.495,-0.220
'23:11.897',-0.495,-0.205
'23:11.900',-0.500,-0.215
'23:11.903',-0.495,-0.200
'23:11.906',-0.490,-0.190
'23:11.908',-0.480,-0.190
'23:11.911',-0.485,-0.180
'23:11.914',-0.485,-0.190
'23:11.917',-0.485,-0.200
'23:11.919',-0.500,-0.205
'23:11.922',-0.500,-0.210
'23:11.925',-0.500,-0.220
'23:11.928',-0.495,-0.215
'23:11.931',-0.500,-0.215
'23:11.933',-0.500,-0.215
'23:11.936',-0.485,-0.200
'23:11.939',-0.500,-0.205
'23:11.942',-0.490,-0.200
'23:11.944',-0.480,-0.190
'23:11.947',-0.485,-0.200
'23:11.950',-0.490,-0.215
'23:11.953',-0.495,-0.215
'23:11.956',-0.500,-0.220
'23:11.958',-0.510,-0.240
'23:11.961',-0.515,-0.235
'23:11.964',-0.525,-0.230
'23:11.967',-0.525,-0.220
'23:11.969',-0.525,-0.220
'23:11.972',-0.515,-0.210
'23:11.975',-0.505,-0.200
'23:11.978',-0.500,-0.195
'23:11.981',-0.500,-0.210
'23:11.983',-0.500,-0.210
'23:11.986',-0.505,-0.225
'23:11.989',-0.505,-0.230
'23:11.992',-0.515,-0.240
'23:11.994',-0.510,-0.235
'23:11.997',-0.515,-0.225
'23:12.000',-0.520,-0.235
'23:12.003',-0.520,-0.230
'23:12.006',-0.520,-0.220
'23:12.008',-0.515,-0.210
'23:12.011',-0.510,-0.205
'23:12.014',-0.510,-0.215
'23:12.017',-0.505,-0.205
'23:12.019',-0.515,-0.220
'23:12.022',-0.525,-0.225
'23:12.025',-0.520,-0.235
'23:12.028',-0.515,-0.235
'23:12.031',-0.520,-0.230
'23:12.033',-0.530,-0.225
'23:12.036',-0.520,-0.220
'23:12.039',-0.505,-0.215
'23:12.042',-0.510,-0.205
'23:12.044',-0.495,-0.200
'23:12.047',-0.505,-0.215
'23:12.050',-0.500,-0.215
'23:12.053',-0.505,-0.220
'23:12.056',-0.515,-0.225
'23:12.058',-0.520,-0.240
'23:12.061',-0.530,-0.225
'23:12.064',-0.530,-0.225
'23:12.067',-0.520,-0.220
'23:12.069',-0.525,-0.210
'23:12.072',-0.520,-0.205
'23:12.075',-0.515,-0.200
'23:12.078',-0.515,-0.190
'23:12.081',-0.510,-0.205
'23:12.083',-0.510,-0.205
'23:12.086',-0.520,-0.215
'23:12.089',-0.520,-0.210
'23:12.092',-0.530,-0.225
'23:12.094',-0.530,-0.230
'23:12.097',-0.530,-0.225
'23:12.100',-0.525,-0.215
'23:12.103',-0.525,-0.215
'23:12.106',-0.510,-0.200
'23:12.108',-0.505,-0.205
'23:12.111',-0.510,-0.190
'23:12.114',-0.510,-0.215
'23:12.117',-0.510,-0.200
'23:12.119',-0.510,-0.210
'23:12.122',-0.510,-0.215
'23:12.125',-0.510,-0.225
'23:12.128',-0.520,-0.235
'23:12.131',-0.520,-0.230
'23:12.133',-0.520,-0.220
'23:12.136',-0.500,-0.200
'23:12.139',-0.490,-0.195
'23:12.142',-0.480,-0.195
'23:12.144',-0.470,-0.195
'23:12.147',-0.470,-0.205
'23:12.150',-0.470,-0.190
'23:12.153',-0.485,-0.205
'23:12.156',-0.485,-0.205
'23:12.158',-0.490,-0.210
'23:12.161',-0.490,-0.180
'23:12.164',-0.480,-0.175
'23:12.167',-0.470,-0.180
'23:12.169',-0.470,-0.160
'23:12.172',-0.450,-0.145
'23:12.175',-0.450,-0.135
'23:12.178',-0.435,-0.130
'23:12.181',-0.435,-0.135
'23:12.183',-0.420,-0.130
'23:12.186',-0.415,-0.150
'23:12.189',-0.415,-0.145
'23:12.192',-0.415,-0.155
'23:12.194',-0.405,-0.175
'23:12.197',-0.405,-0.185
'23:12.200',-0.395,-0.175
'23:12.203',-0.385,-0.190
'23:12.206',-0.380,-0.210
'23:12.208',-0.370,-0.225
'23:12.211',-0.380,-0.235
'23:12.214',-0.400,-0.245
'23:12.217',-0.400,-0.260
'23:12.219',-0.410,-0.240
'23:12.222',-0.420,-0.260
'23:12.225',-0.450,-0.240
'23:12.228',-0.465,-0.230
'23:12.231',-0.485,-0.220
'23:12.233',-0.490,-0.210
'23:12.236',-0.495,-0.215
'23:12.239',-0.500,-0.200
'23:12.242',-0.505,-0.185
'23:12.244',-0.510,-0.190
'23:12.247',-0.525,-0.180
'23:12.250',-0.530,-0.185
'23:12.253',-0.545,-0.195
'23:12.256',-0.555,-0.200
'23:12.258',-0.555,-0.205
'23:12.261',-0.560,-0.210
'23:12.264',-0.560,-0.205
'23:12.267',-0.550,-0.205
'23:12.269',-0.550,-0.195
'23:12.272',-0.540,-0.195
'23:12.275',-0.540,-0.190
'23:12.278',-0.530,-0.185
'23:12.281',-0.520,-0.195
'23:12.283',-0.505,-0.185
'23:12.286',-0.500,-0.190
'23:12.289',-0.500,-0.200
'23:12.292',-0.510,-0.215
'23:12.294',-0.495,-0.210
'23:12.297',-0.490,-0.210
'23:12.300',-0.465,-0.200
'23:12.303',-0.440,-0.210
'23:12.306',-0.400,-0.195
'23:12.308',-0.345,-0.195
'23:12.311',-0.265,-0.195
'23:12.314',-0.175,-0.190
'23:12.317',-0.070,-0.195
'23:12.319',0.050,-0.220
'23:12.322',0.175,-0.225
'23:12.325',0.320,-0.240
'23:12.328',0.490,-0.265
'23:12.331',0.635,-0.290
'23:12.333',0.775,-0.340
'23:12.336',0.865,-0.405
'23:12.339',0.940,-0.470
'23:12.342',1.030,-0.545
'23:12.344',1.130,-0.640
'23:12.347',1.250,-0.740
'23:12.350',1.340,-0.825
'23:12.353',1.315,-0.935
'23:12.356',1.160,-1.030
'23:12.358',0.870,-1.095
'23:12.361',0.490,-1.145
'23:12.364',0.080,-1.140
'23:12.367',-0.290,-1.120
'23:12.369',-0.570,-1.075
'23:12.372',-0.760,-0.990
'23:12.375',-0.835,-0.900
'23:12.378',-0.850,-0.815
'23:12.381',-0.800,-0.745
'23:12.383',-0.750,-0.680
'23:12.386',-0.690,-0.610
'23:12.389',-0.675,-0.560
'23:12.392',-0.660,-0.515
'23:12.394',-0.655,-0.460
'23:12.397',-0.660,-0.380
'23:12.400',-0.665,-0.325
'23:12.403',-0.655,-0.275
'23:12.406',-0.660,-0.230
'23:12.408',-0.675,-0.205
'23:12.411',-0.665,-0.200
'23:12.414',-0.670,-0.205
'23:12.417',-0.660,-0.200
'23:12.419',-0.670,-0.215
'23:12.422',-0.675,-0.220
'23:12.425',-0.680,-0.210
'23:12.428',-0.680,-0.210
'23:12.431',-0.680,-0.200
'23:12.433',-0.690,-0.200
'23:12.436',-0.690,-0.185
'23:12.439',-0.685,-0.175
'23:12.442',-0.690,-0.180
'23:12.444',-0.670,-0.155
'23:12.447',-0.685,-0.160
'23:12.450',-0.685,-0.160
'23:12.453',-0.690,-0.175
'23:12.456',-0.695,-0.180
'23:12.458',-0.705,-0.190
'23:12.461',-0.705,-0.200
'23:12.464',-0.725,-0.180
'23:12.467',-0.720,-0.175
'23:12.469',-0.720,-0.160
'23:12.472',-0.720,-0.170
'23:12.475',-0.720,-0.155
'23:12.478',-0.725,-0.155
'23:12.481',-0.730,-0.165
'23:12.483',-0.735,-0.155
'23:12.486',-0.745,-0.175
'23:12.489',-0.740,-0.175
'23:12.492',-0.750,-0.180
'23:12.494',-0.755,-0.180
'23:12.497',-0.765,-0.170
'23:12.500',-0.765,-0.180
'23:12.503',-0.765,-0.155
'23:12.506',-0.770,-0.155
'23:12.508',-0.780,-0.145
'23:12.511',-0.770,-0.140
'23:12.514',-0.775,-0.150
'23:12.517',-0.785,-0.145
'23:12.519',-0.790,-0.165
'23:12.522',-0.800,-0.175
'23:12.525',-0.820,-0.175
'23:12.528',-0.825,-0.170
'23:12.531',-0.820,-0.155
'23:12.533',-0.830,-0.155
'23:12.536',-0.835,-0.155
'23:12.539',-0.835,-0.130
'23:12.542',-0.825,-0.135
'23:12.544',-0.820,-0.125
'23:12.547',-0.820,-0.130
'23:12.550',-0.830,-0.135
'23:12.553',-0.840,-0.130
'23:12.556',-0.835,-0.135
'23:12.558',-0.835,-0.145
'23:12.561',-0.845,-0.140
'23:12.564',-0.840,-0.130
'23:12.567',-0.845,-0.125
'23:12.569',-0.855,-0.125
'23:12.572',-0.850,-0.115
'23:12.575',-0.830,-0.090
'23:12.578',-0.835,-0.090
'23:12.581',-0.815,-0.090
'23:12.583',-0.825,-0.090
'23:12.586',-0.820,-0.095
'23:12.589',-0.830,-0.100
'23:12.592',-0.825,-0.120
'23:12.594',-0.825,-0.105
'23:12.597',-0.820,-0.100
'23:12.600',-0.825,-0.095
'23:12.603',-0.800,-0.090
'23:12.606',-0.770,-0.080
'23:12.608',-0.775,-0.075
'23:12.611',-0.750,-0.080
'23:12.614',-0.730,-0.085
'23:12.617',-0.710,-0.085
'23:12.619',-0.680,-0.095
'23:12.622',-0.665,-0.105
'23:12.625',-0.650,-0.115
'23:12.628',-0.650,-0.125
'23:12.631',-0.635,-0.130
'23:12.633',-0.610,-0.125
'23:12.636',-0.605,-0.120
'23:12.639',-0.580,-0.115
'23:12.642',-0.560,-0.120
'23:12.644',-0.545,-0.115
'23:12.647',-0.535,-0.130
'23:12.650',-0.525,-0.145
'23:12.653',-0.525,-0.150
'23:12.656',-0.530,-0.175
'23:12.658',-0.525,-0.175
'23:12.661',-0.530,-0.195
'23:12.664',-0.535,-0.185
'23:12.667',-0.535,-0.180
'23:12.669',-0.535,-0.170
'23:12.672',-0.520,-0.160
'23:12.675',-0.525,-0.175
'23:12.678',-0.520,-0.160
'23:12.681',-0.525,-0.165
'23:12.683',-0.535,-0.190
'23:12.686',-0.525,-0.190
'23:12.689',-0.545,-0.190
'23:12.692',-0.560,-0.195
'23:12.694',-0.555,-0.215
'23:12.697',-0.550,-0.200
'23:12.700',-0.550,-0.205
'23:12.703',-0.550,-0.195
'23:12.706',-0.540,-0.195
'23:12.708',-0.535,-0.185
'23:12.711',-0.540,-0.170
'23:12.714',-0.545,-0.190
'23:12.717',-0.550,-0.195
'23:12.719',-0.545,-0.200
'23:12.722',-0.550,-0.200
'23:12.725',-0.555,-0.220
'23:12.728',-0.570,-0.230
'23:12.731',-0.570,-0.220
'23:12.733',-0.570,-0.205
'23:12.736',-0.575,-0.200
'23:12.739',-0.565,-0.200
'23:12.742',-0.565,-0.195
'23:12.744',-0.570,-0.195
'23:12.747',-0.570,-0.200
'23:12.750',-0.575,-0.200
'23:12.753',-0.580,-0.205
'23:12.756',-0.590,-0.230
'23:12.758',-0.590,-0.220
'23:12.761',-0.590,-0.230
'23:12.764',-0.590,-0.220
'23:12.767',-0.605,-0.220
'23:12.769',-0.580,-0.195
'23:12.772',-0.580,-0.205
'23:12.775',-0.575,-0.200
'23:12.778',-0.555,-0.205
'23:12.781',-0.555,-0.205
'23:12.783',-0.545,-0.215
'23:12.786',-0.555,-0.225
'23:12.789',-0.555,-0.240
'23:12.792',-0.570,-0.250
'23:12.794',-0.600,-0.250
'23:12.797',-0.620,-0.255
'23:12.800',-0.640,-0.240
'23:12.803',-0.665,-0.230
'23:12.806',-0.650,-0.220
'23:12.808',-0.635,-0.205
'23:12.811',-0.590,-0.225
'23:12.814',-0.525,-0.280
'23:12.817',-0.415,-0.355
'23:12.819',-0.290,-0.470
'23:12.822',-0.150,-0.620
'23:12.825',-0.015,-0.750
'23:12.828',0.080,-0.890
'23:12.831',0.145,-0.985
'23:12.833',0.195,-1.050
'23:12.836',0.210,-1.095
'23:12.839',0.200,-1.120
'23:12.842',0.115,-1.125
'23:12.844',-0.020,-1.130
'23:12.847',-0.170,-1.115
'23:12.850',-0.325,-1.090
'23:12.853',-0.460,-1.050
'23:12.856',-0.590,-1.025
'23:12.858',-0.720,-1.020
'23:12.861',-0.855,-1.005
'23:12.864',-1.005,-0.975
'23:12.867',-1.150,-0.940
'23:12.869',-1.270,-0.910
'23:12.872',-1.340,-0.865
'23:12.875',-1.355,-0.840
'23:12.878',-1.345,-0.810
'23:12.881',-1.290,-0.800
'23:12.883',-1.240,-0.770
'23:12.886',-1.180,-0.735
'23:12.889',-1.145,-0.730
