'Elapsed time','MLII','V1'
'hh:mm:ss.mmm','mV','mV'
'9:00.000',0.075,-1.320
'9:00.003',-0.145,-1.310
'9:00.006',-0.360,-1.290
'9:00.008',-0.520,-1.235
'9:00.011',-0.635,-1.160
'9:00.014',-0.670,-1.060
'9:00.017',-0.665,-0.970
'9:00.019',-0.635,-0.880
'9:00.022',-0.595,-0.795
'9:00.025',-0.565,-0.720
'9:00.028',-0.535,-0.665
'9:00.031',-0.500,-0.605
'9:00.033',-0.495,-0.555
'9:00.036',-0.485,-0.505
'9:00.039',-0.480,-0.450
'9:00.042',-0.480,-0.405
'9:00.044',-0.480,-0.375
'9:00.047',-0.490,-0.340
'9:00.050',-0.490,-0.295
'9:00.053',-0.490,-0.300
'9:00.056',-0.510,-0.295
'9:00.058',-0.500,-0.290
'9:00.061',-0.485,-0.290
'9:00.064',-0.465,-0.270
'9:00.067',-0.470,-0.285
'9:00.069',-0.470,-0.265
'9:00.072',-0.465,-0.270
'9:00.075',-0.460,-0.270
'9:00.078',-0.455,-0.285
'9:00.081',-0.465,-0.290
'9:00.083',-0.470,-0.295
'9:00.086',-0.465,-0.280
'9:00.089',-0.455,-0.275
'9:00.092',-0.465,-0.260
'9:00.094',-0.460,-0.250
'9:00.097',-0.460,-0.230
'9:00.100',-0.480,-0.235
'9:00.103',-0.485,-0.235
'9:00.106',-0.485,-0.245
'9:00.108',-0.490,-0.255
'9:00.111',-0.485,-0.275
'9:00.114',-0.485,-0.275
'9:00.117',-0.485,-0.260
'9:00.119',-0.490,-0.255
'9:00.122',-0.490,-0.245
'9:00.125',-0.490,-0.245
'9:00.128',-0.490,-0.220
'9:00.131',-0.490,-0.230
'9:00.133',-0.485,-0.235
'9:00.136',-0.475,-0.230
'9:00.139',-0.485,-0.240
'9:00.142',-0.485,-0.250
'9:00.144',-0.485,-0.250
'9:00.147',-0.495,-0.245
'9:00.150',-0.495,-0.250
'9:00.153',-0.505,-0.240
'9:00.156',-0.510,-0.230
'9:00.158',-0.515,-0.230
'9:00.161',-0.530,-0.220
'9:00.164',-0.515,-0.205
'9:00.167',-0.530,-0.220
'9:00.169',-0.530,-0.205
'9:00.172',-0.520,-0.210
'9:00.175',-0.535,-0.225
'9:00.178',-0.530,-0.235
'9:00.181',-0.535,-0.235
'9:00.183',-0.535,-0.225
'9:00.186',-0.510,-0.225
'9:00.189',-0.515,-0.210
'9:00.192',-0.510,-0.195
'9:00.194',-0.505,-0.180
'9:00.197',-0.525,-0.180
'9:00.200',-0.530,-0.185
'9:00.203',-0.520,-0.175
'9:00.206',-0.510,-0.180
'9:00.208',-0.510,-0.180
'9:00.211',-0.495,-0.180
'9:00.214',-0.490,-0.185
'9:00.217',-0.490,-0.180
'9:00.219',-0.480,-0.170
'9:00.222',-0.490,-0.145
'9:00.225',-0.470,-0.135
'9:00.228',-0.450,-0.130
'9:00.231',-0.440,-0.120
'9:00.233',-0.425,-0.135
'9:00.236',-0.425,-0.125
'9:00.239',-0.425,-0.140
'9:00.242',-0.430,-0.150
'9:00.244',-0.420,-0.150
'9:00.247',-0.420,-0.160
'9:00.250',-0.420,-0.155
'9:00.253',-0.385,-0.140
'9:00.256',-0.365,-0.145
'9:00.258',-0.345,-0.150
'9:00.261',-0.345,-0.140
'9:00.264',-0.335,-0.145
'9:00.267',-0.350,-0.150
'9:00.269',-0.340,-0.155
'9:00.272',-0.330,-0.170
'9:00.275',-0.335,-0.190
'9:00.278',-0.335,-0.205
'9:00.281',-0.340,-0.220
'9:00.283',-0.345,-0.205
'9:00.286',-0.350,-0.215
'9:00.289',-0.345,-0.200
'9:00.292',-0.340,-0.205
'9:00.294',-0.335,-0.205
'9:00.297',-0.325,-0.205
'9:00.300',-0.330,-0.220
'9:00.303',-0.345,-0.220
'9:00.306',-0.340,-0.235
'9:00.308',-0.360,-0.250
'9:00.311',-0.370,-0.260
'9:00.314',-0.380,-0.270
'9:00.317',-0.395,-0.270
'9:00.319',-0.400,-0.260
'9:00.322',-0.395,-0.260
'9:00.325',-0.370,-0.260
'9:00.328',-0.365,-0.255
'9:00.331',-0.365,-0.255
'9:00.333',-0.370,-0.270
'9:00.336',-0.380,-0.270
'9:00.339',-0.405,-0.270
'9:00.342',-0.420,-0.270
'9:00.344',-0.440,-0.280
'9:00.347',-0.445,-0.285
'9:00.350',-0.440,-0.290
'9:00.353',-0.430,-0.285
'9:00.356',-0.420,-0.290
'9:00.358',-0.410,-0.290
'9:00.361',-0.405,-0.280
'9:00.364',-0.405,-0.280
'9:00.367',-0.415,-0.285
'9:00.369',-0.430,-0.285
'9:00.372',-0.460,-0.295
'9:00.375',-0.460,-0.315
'9:00.378',-0.465,-0.325
'9:00.381',-0.445,-0.310
'9:00.383',-0.445,-0.300
'9:00.386',-0.435,-0.310
'9:00.389',-0.440,-0.290
'9:00.392',-0.425,-0.290
'9:00.394',-0.420,-0.285
'9:00.397',-0.430,-0.290
'9:00.400',-0.435,-0.295
'9:00.403',-0.445,-0.290
'9:00.406',-0.450,-0.310
'9:00.408',-0.440,-0.310
'9:00.411',-0.450,-0.310
'9:00.414',-0.460,-0.315
'9:00.417',-0.470,-0.310
'9:00.419',-0.475,-0.290
'9:00.422',-0.470,-0.295
'9:00.425',-0.455,-0.290
'9:00.428',-0.460,-0.275
'9:00.431',-0.445,-0.275
'9:00.433',-0.450,-0.270
'9:00.436',-0.445,-0.265
'9:00.439',-0.440,-0.270
'9:00.442',-0.445,-0.275
'9:00.444',-0.450,-0.290
'9:00.447',-0.445,-0.300
'9:00.450',-0.455,-0.290
'9:00.453',-0.460,-0.285
'9:00.456',-0.470,-0.275
'9:00.458',-0.470,-0.265
'9:00.461',-0.465,-0.250
'9:00.464',-0.455,-0.245
'9:00.467',-0.455,-0.260
'9:00.469',-0.440,-0.270
'9:00.472',-0.425,-0.260
'9:00.475',-0.415,-0.275
'9:00.478',-0.415,-0.285
'9:00.481',-0.415,-0.280
'9:00.483',-0.410,-0.275
'9:00.486',-0.415,-0.270
'9:00.489',-0.410,-0.255
'9:00.492',-0.405,-0.235
'9:00.494',-0.415,-0.230
'9:00.497',-0.405,-0.225
'9:00.500',-0.405,-0.230
'9:00.503',-0.400,-0.230
'9:00.506',-0.390,-0.225
'9:00.508',-0.390,-0.230
'9:00.511',-0.395,-0.235
'9:00.514',-0.385,-0.230
'9:00.517',-0.385,-0.225
'9:00.519',-0.365,-0.200
'9:00.522',-0.345,-0.200
'9:00.525',-0.335,-0.190
'9:00.528',-0.325,-0.185
'9:00.531',-0.305,-0.195
'9:00.533',-0.295,-0.215
'9:00.536',-0.295,-0.210
'9:00.539',-0.310,-0.230
'9:00.542',-0.320,-0.245
'9:00.544',-0.340,-0.285
'9:00.547',-0.335,-0.300
'9:00.550',-0.355,-0.325
'9:00.553',-0.350,-0.320
'9:00.556',-0.345,-0.330
'9:00.558',-0.340,-0.320
'9:00.561',-0.335,-0.300
'9:00.564',-0.350,-0.290
'9:00.567',-0.360,-0.290
'9:00.569',-0.385,-0.270
'9:00.572',-0.405,-0.285
'9:00.575',-0.425,-0.285
'9:00.578',-0.420,-0.310
'9:00.581',-0.460,-0.305
'9:00.583',-0.460,-0.300
'9:00.586',-0.440,-0.295
'9:00.589',-0.455,-0.280
'9:00.592',-0.445,-0.275
'9:00.594',-0.450,-0.270
'9:00.597',-0.440,-0.270
'9:00.600',-0.445,-0.275
'9:00.603',-0.445,-0.280
'9:00.606',-0.440,-0.285
'9:00.608',-0.450,-0.300
'9:00.611',-0.455,-0.300
'9:00.614',-0.460,-0.305
'9:00.617',-0.460,-0.305
'9:00.619',-0.465,-0.305
'9:00.622',-0.465,-0.290
'9:00.625',-0.455,-0.285
'9:00.628',-0.450,-0.285
'9:00.631',-0.460,-0.280
'9:00.633',-0.450,-0.285
'9:00.636',-0.450,-0.280
'9:00.639',-0.445,-0.285
'9:00.642',-0.440,-0.285
'9:00.644',-0.420,-0.300
'9:00.647',-0.415,-0.320
'9:00.650',-0.395,-0.315
'9:00.653',-0.365,-0.310
'9:00.656',-0.340,-0.305
'9:00.658',-0.285,-0.305
'9:00.661',-0.220,-0.305
'9:00.664',-0.160,-0.295
'9:00.667',-0.095,-0.300
'9:00.669',-0.035,-0.300
'9:00.672',0.030,-0.320
'9:00.675',0.075,-0.330
'9:00.678',0.145,-0.360
'9:00.681',0.210,-0.395
'9:00.683',0.250,-0.445
'9:00.686',0.275,-0.515
'9:00.689',0.290,-0.585
'9:00.692',0.315,-0.680
'9:00.694',0.350,-0.775
'9:00.697',0.420,-0.845
'9:00.700',0.470,-0.965
'9:00.703',0.495,-1.055
'9:00.706',0.460,-1.160
'9:00.708',0.340,-1.250
'9:00.711',0.170,-1.300
'9:00.714',-0.030,-1.345
'9:00.717',-0.235,-1.330
'9:00.719',-0.425,-1.285
'9:00.722',-0.560,-1.225
'9:00.725',-0.650,-1.145
'9:00.728',-0.685,-1.050
'9:00.731',-0.675,-0.950
'9:00.733',-0.660,-0.875
'9:00.736',-0.650,-0.805
'9:00.739',-0.620,-0.740
'9:00.742',-0.595,-0.675
'9:00.744',-0.570,-0.635
'9:00.747',-0.550,-0.570
'9:00.750',-0.540,-0.500
'9:00.753',-0.530,-0.430
'9:00.756',-0.520,-0.365
'9:00.758',-0.510,-0.320
'9:00.761',-0.505,-0.295
'9:00.764',-0.500,-0.270
'9:00.767',-0.515,-0.285
'9:00.769',-0.515,-0.285
'9:00.772',-0.525,-0.285
'9:00.775',-0.535,-0.300
'9:00.778',-0.545,-0.290
'9:00.781',-0.530,-0.290
'9:00.783',-0.525,-0.280
'9:00.786',-0.525,-0.270
'9:00.789',-0.510,-0.260
'9:00.792',-0.505,-0.250
'9:00.794',-0.505,-0.250
'9:00.797',-0.495,-0.235
'9:00.800',-0.500,-0.245
'9:00.803',-0.500,-0.245
'9:00.806',-0.510,-0.255
'9:00.808',-0.510,-0.250
'9:00.811',-0.515,-0.260
'9:00.814',-0.530,-0.270
'9:00.817',-0.520,-0.255
'9:00.819',-0.520,-0.260
'9:00.822',-0.520,-0.250
'9:00.825',-0.510,-0.240
'9:00.828',-0.500,-0.235
'9:00.831',-0.500,-0.225
'9:00.833',-0.490,-0.230
'9:00.836',-0.485,-0.230
'9:00.839',-0.490,-0.235
'9:00.842',-0.495,-0.235
'9:00.844',-0.530,-0.245
'9:00.847',-0.535,-0.255
'9:00.850',-0.550,-0.240
'9:00.853',-0.535,-0.235
'9:00.856',-0.535,-0.235
'9:00.858',-0.515,-0.225
'9:00.861',-0.500,-0.220
'9:00.864',-0.505,-0.210
'9:00.867',-0.515,-0.220
'9:00.869',-0.520,-0.210
'9:00.872',-0.535,-0.230
'9:00.875',-0.555,-0.230
'9:00.878',-0.550,-0.225
'9:00.881',-0.545,-0.245
'9:00.883',-0.535,-0.225
'9:00.886',-0.525,-0.225
'9:00.889',-0.515,-0.210
'9:00.892',-0.520,-0.200
'9:00.894',-0.545,-0.195
'9:00.897',-0.545,-0.195
'9:00.900',-0.555,-0.190
'9:00.903',-0.560,-0.185
'9:00.906',-0.560,-0.190
'9:00.908',-0.565,-0.195
'9:00.911',-0.565,-0.205
'9:00.914',-0.560,-0.205
'9:00.917',-0.545,-0.195
'9:00.919',-0.535,-0.190
'9:00.922',-0.520,-0.180
'9:00.925',-0.520,-0.165
'9:00.928',-0.510,-0.160
'9:00.931',-0.495,-0.165
'9:00.933',-0.500,-0.155
'9:00.936',-0.495,-0.145
'9:00.939',-0.505,-0.160
'9:00.942',-0.515,-0.150
'9:00.944',-0.505,-0.165
'9:00.947',-0.505,-0.155
'9:00.950',-0.485,-0.145
'9:00.953',-0.485,-0.150
'9:00.956',-0.485,-0.130
'9:00.958',-0.455,-0.135
'9:00.961',-0.430,-0.135
'9:00.964',-0.415,-0.130
'9:00.967',-0.395,-0.135
'9:00.969',-0.380,-0.130
'9:00.972',-0.370,-0.150
'9:00.975',-0.360,-0.160
'9:00.978',-0.365,-0.160
'9:00.981',-0.380,-0.170
'9:00.983',-0.380,-0.165
'9:00.986',-0.390,-0.175
'9:00.989',-0.385,-0.155
'9:00.992',-0.370,-0.150
'9:00.994',-0.360,-0.160
'9:00.997',-0.345,-0.145
'9:01.000',-0.340,-0.180
'9:01.003',-0.340,-0.190
'9:01.006',-0.355,-0.190
'9:01.008',-0.350,-0.220
'9:01.011',-0.370,-0.225
'9:01.014',-0.395,-0.240
'9:01.017',-0.400,-0.235
'9:01.019',-0.420,-0.235
'9:01.022',-0.425,-0.225
'9:01.025',-0.395,-0.230
'9:01.028',-0.395,-0.225
'9:01.031',-0.380,-0.220
'9:01.033',-0.395,-0.225
'9:01.036',-0.385,-0.240
'9:01.039',-0.385,-0.255
'9:01.042',-0.410,-0.250
'9:01.044',-0.420,-0.245
'9:01.047',-0.435,-0.275
'9:01.050',-0.430,-0.270
'9:01.053',-0.435,-0.265
'9:01.056',-0.425,-0.260
'9:01.058',-0.420,-0.275
'9:01.061',-0.425,-0.265
'9:01.064',-0.415,-0.275
'9:01.067',-0.425,-0.275
'9:01.069',-0.405,-0.280
'9:01.072',-0.415,-0.280
'9:01.075',-0.420,-0.285
'9:01.078',-0.435,-0.295
'9:01.081',-0.450,-0.310
'9:01.083',-0.445,-0.285
'9:01.086',-0.455,-0.285
'9:01.089',-0.445,-0.290
'9:01.092',-0.440,-0.275
'9:01.094',-0.435,-0.265
'9:01.097',-0.435,-0.260
'9:01.100',-0.440,-0.250
'9:01.103',-0.440,-0.270
'9:01.106',-0.450,-0.270
'9:01.108',-0.445,-0.285
'9:01.111',-0.455,-0.300
'9:01.114',-0.460,-0.310
'9:01.117',-0.470,-0.305
'9:01.119',-0.455,-0.295
'9:01.122',-0.455,-0.280
'9:01.125',-0.450,-0.280
'9:01.128',-0.450,-0.265
'9:01.131',-0.455,-0.260
'9:01.133',-0.440,-0.265
'9:01.136',-0.445,-0.275
'9:01.139',-0.430,-0.285
'9:01.142',-0.445,-0.300
'9:01.144',-0.455,-0.300
'9:01.147',-0.460,-0.300
'9:01.150',-0.465,-0.295
'9:01.153',-0.475,-0.295
'9:01.156',-0.485,-0.290
'9:01.158',-0.470,-0.280
'9:01.161',-0.465,-0.275
'9:01.164',-0.455,-0.255
'9:01.167',-0.460,-0.260
'9:01.169',-0.465,-0.260
'9:01.172',-0.485,-0.255
'9:01.175',-0.490,-0.270
'9:01.178',-0.485,-0.270
'9:01.181',-0.495,-0.280
'9:01.183',-0.495,-0.275
'9:01.186',-0.500,-0.275
'9:01.189',-0.480,-0.280
'9:01.192',-0.470,-0.270
'9:01.194',-0.470,-0.265
'9:01.197',-0.470,-0.260
'9:01.200',-0.460,-0.255
'9:01.203',-0.450,-0.260
'9:01.206',-0.455,-0.265
'9:01.208',-0.445,-0.265
'9:01.211',-0.435,-0.275
'9:01.214',-0.440,-0.285
'9:01.217',-0.445,-0.265
'9:01.219',-0.430,-0.255
'9:01.222',-0.415,-0.240
'9:01.225',-0.415,-0.220
'9:01.228',-0.405,-0.215
'9:01.231',-0.400,-0.195
'9:01.233',-0.375,-0.195
'9:01.236',-0.365,-0.210
'9:01.239',-0.340,-0.220
'9:01.242',-0.325,-0.235
'9:01.244',-0.320,-0.240
'9:01.247',-0.320,-0.255
'9:01.250',-0.320,-0.260
'9:01.253',-0.320,-0.265
'9:01.256',-0.340,-0.275
'9:01.258',-0.345,-0.300
'9:01.261',-0.355,-0.315
'9:01.264',-0.365,-0.325
'9:01.267',-0.375,-0.330
'9:01.269',-0.395,-0.320
'9:01.272',-0.400,-0.315
'9:01.275',-0.405,-0.315
'9:01.278',-0.425,-0.310
'9:01.281',-0.430,-0.320
'9:01.283',-0.430,-0.310
'9:01.286',-0.445,-0.310
'9:01.289',-0.445,-0.305
'9:01.292',-0.450,-0.290
'9:01.294',-0.465,-0.290
'9:01.297',-0.455,-0.285
'9:01.300',-0.465,-0.290
'9:01.303',-0.470,-0.290
'9:01.306',-0.490,-0.290
'9:01.308',-0.495,-0.305
'9:01.311',-0.505,-0.300
'9:01.314',-0.515,-0.305
'9:01.317',-0.530,-0.285
'9:01.319',-0.530,-0.290
'9:01.322',-0.515,-0.275
'9:01.325',-0.510,-0.275
'9:01.328',-0.500,-0.270
'9:01.331',-0.490,-0.260
'9:01.333',-0.480,-0.280
'9:01.336',-0.470,-0.285
'9:01.339',-0.475,-0.295
'9:01.342',-0.470,-0.310
'9:01.344',-0.480,-0.320
'9:01.347',-0.490,-0.305
'9:01.350',-0.485,-0.295
'9:01.353',-0.485,-0.305
'9:01.356',-0.465,-0.305
'9:01.358',-0.440,-0.295
'9:01.361',-0.430,-0.290
'9:01.364',-0.410,-0.285
'9:01.367',-0.395,-0.295
'9:01.369',-0.365,-0.295
'9:01.372',-0.335,-0.285
'9:01.375',-0.305,-0.300
'9:01.378',-0.255,-0.305
'9:01.381',-0.200,-0.315
'9:01.383',-0.145,-0.315
'9:01.386',-0.080,-0.315
'9:01.389',-0.010,-0.330
'9:01.392',0.075,-0.325
'9:01.394',0.150,-0.355
'9:01.397',0.195,-0.390
'9:01.400',0.230,-0.460
'9:01.403',0.230,-0.565
'9:01.406',0.265,-0.680
'9:01.408',0.290,-0.805
'9:01.411',0.330,-0.930
'9:01.414',0.350,-1.055
'9:01.417',0.290,-1.140
'9:01.419',0.140,-1.220
'9:01.422',-0.070,-1.240
'9:01.425',-0.320,-1.235
'9:01.428',-0.540,-1.175
'9:01.431',-0.685,-1.100
'9:01.433',-0.775,-1.015
'9:01.436',-0.785,-0.915
'9:01.439',-0.730,-0.825
'9:01.442',-0.690,-0.765
'9:01.444',-0.650,-0.705
'9:01.447',-0.615,-0.640
'9:01.450',-0.590,-0.585
'9:01.453',-0.575,-0.530
'9:01.456',-0.555,-0.475
'9:01.458',-0.545,-0.415
'9:01.461',-0.530,-0.355
'9:01.464',-0.530,-0.305
'9:01.467',-0.515,-0.285
'9:01.469',-0.520,-0.275
'9:01.472',-0.525,-0.285
'9:01.475',-0.540,-0.300
'9:01.478',-0.545,-0.305
'9:01.481',-0.550,-0.300
'9:01.483',-0.560,-0.285
'9:01.486',-0.565,-0.285
'9:01.489',-0.555,-0.265
'9:01.492',-0.540,-0.260
'9:01.494',-0.530,-0.255
'9:01.497',-0.530,-0.250
'9:01.500',-0.530,-0.260
'9:01.503',-0.520,-0.255
'9:01.506',-0.530,-0.265
'9:01.508',-0.515,-0.265
'9:01.511',-0.520,-0.270
'9:01.514',-0.540,-0.270
'9:01.517',-0.560,-0.265
'9:01.519',-0.555,-0.260
'9:01.522',-0.570,-0.240
'9:01.525',-0.565,-0.235
'9:01.528',-0.545,-0.230
'9:01.531',-0.535,-0.220
'9:01.533',-0.535,-0.245
'9:01.536',-0.540,-0.245
'9:01.539',-0.560,-0.240
'9:01.542',-0.580,-0.250
'9:01.544',-0.570,-0.260
'9:01.547',-0.585,-0.265
'9:01.550',-0.595,-0.255
'9:01.553',-0.585,-0.245
'9:01.556',-0.575,-0.240
'9:01.558',-0.560,-0.235
'9:01.561',-0.570,-0.220
'9:01.564',-0.550,-0.210
'9:01.567',-0.555,-0.220
'9:01.569',-0.560,-0.230
'9:01.572',-0.565,-0.240
'9:01.575',-0.570,-0.245
'9:01.578',-0.575,-0.250
'9:01.581',-0.595,-0.250
'9:01.583',-0.590,-0.245
'9:01.586',-0.585,-0.220
'9:01.589',-0.570,-0.220
'9:01.592',-0.570,-0.220
'9:01.594',-0.565,-0.205
'9:01.597',-0.565,-0.195
'9:01.600',-0.560,-0.200
'9:01.603',-0.570,-0.185
'9:01.606',-0.565,-0.205
'9:01.608',-0.555,-0.210
'9:01.611',-0.555,-0.210
'9:01.614',-0.545,-0.215
'9:01.617',-0.560,-0.210
'9:01.619',-0.540,-0.200
'9:01.622',-0.540,-0.185
'9:01.625',-0.515,-0.170
'9:01.628',-0.500,-0.155
'9:01.631',-0.490,-0.150
'9:01.633',-0.470,-0.150
'9:01.636',-0.470,-0.155
'9:01.639',-0.465,-0.170
'9:01.642',-0.475,-0.165
'9:01.644',-0.480,-0.175
'9:01.647',-0.465,-0.165
'9:01.650',-0.460,-0.170
'9:01.653',-0.445,-0.165
'9:01.656',-0.445,-0.160
'9:01.658',-0.415,-0.170
'9:01.661',-0.400,-0.150
'9:01.664',-0.385,-0.155
'9:01.667',-0.350,-0.165
'9:01.669',-0.365,-0.175
'9:01.672',-0.360,-0.175
'9:01.675',-0.355,-0.185
'9:01.678',-0.365,-0.200
'9:01.681',-0.380,-0.205
'9:01.683',-0.385,-0.220
'9:01.686',-0.395,-0.225
'9:01.689',-0.395,-0.225
'9:01.692',-0.390,-0.210
'9:01.694',-0.390,-0.205
'9:01.697',-0.375,-0.215
'9:01.700',-0.385,-0.225
'9:01.703',-0.400,-0.225
'9:01.706',-0.400,-0.240
'9:01.708',-0.410,-0.255
'9:01.711',-0.420,-0.265
'9:01.714',-0.435,-0.275
'9:01.717',-0.450,-0.265
'9:01.719',-0.445,-0.260
'9:01.722',-0.440,-0.255
'9:01.725',-0.415,-0.270
'9:01.728',-0.400,-0.250
'9:01.731',-0.390,-0.255
'9:01.733',-0.390,-0.255
'9:01.736',-0.395,-0.260
'9:01.739',-0.410,-0.265
'9:01.742',-0.440,-0.275
'9:01.744',-0.445,-0.275
'9:01.747',-0.465,-0.295
'9:01.750',-0.485,-0.295
'9:01.753',-0.485,-0.295
'9:01.756',-0.480,-0.280
'9:01.758',-0.470,-0.275
'9:01.761',-0.465,-0.275
'9:01.764',-0.445,-0.270
'9:01.767',-0.440,-0.270
'9:01.769',-0.455,-0.275
'9:01.772',-0.455,-0.290
'9:01.775',-0.450,-0.295
'9:01.778',-0.465,-0.300
'9:01.781',-0.470,-0.300
'9:01.783',-0.485,-0.300
'9:01.786',-0.485,-0.300
'9:01.789',-0.485,-0.280
'9:01.792',-0.475,-0.280
'9:01.794',-0.475,-0.265
'9:01.797',-0.470,-0.255
'9:01.800',-0.460,-0.265
'9:01.803',-0.465,-0.280
'9:01.806',-0.455,-0.295
'9:01.808',-0.465,-0.295
'9:01.811',-0.475,-0.305
'9:01.814',-0.470,-0.305
'9:01.817',-0.475,-0.300
'9:01.819',-0.485,-0.290
'9:01.822',-0.500,-0.280
'9:01.825',-0.500,-0.255
'9:01.828',-0.505,-0.255
'9:01.831',-0.490,-0.245
'9:01.833',-0.465,-0.245
'9:01.836',-0.470,-0.260
'9:01.839',-0.460,-0.265
'9:01.842',-0.465,-0.265
'9:01.844',-0.460,-0.275
'9:01.847',-0.465,-0.275
'9:01.850',-0.470,-0.270
'9:01.853',-0.465,-0.255
'9:01.856',-0.485,-0.265
'9:01.858',-0.470,-0.245
'9:01.861',-0.470,-0.240
'9:01.864',-0.480,-0.225
'9:01.867',-0.480,-0.225
'9:01.869',-0.490,-0.240
'9:01.872',-0.490,-0.240
'9:01.875',-0.485,-0.235
'9:01.878',-0.475,-0.245
'9:01.881',-0.460,-0.265
'9:01.883',-0.465,-0.260
'9:01.886',-0.460,-0.265
'9:01.889',-0.445,-0.240
'9:01.892',-0.450,-0.230
'9:01.894',-0.430,-0.230
'9:01.897',-0.415,-0.205
'9:01.900',-0.410,-0.210
'9:01.903',-0.410,-0.210
'9:01.906',-0.410,-0.205
'9:01.908',-0.410,-0.220
'9:01.911',-0.405,-0.225
'9:01.914',-0.415,-0.225
'9:01.917',-0.415,-0.210
'9:01.919',-0.415,-0.210
'9:01.922',-0.400,-0.180
'9:01.925',-0.385,-0.185
'9:01.928',-0.370,-0.175
'9:01.931',-0.345,-0.180
'9:01.933',-0.335,-0.205
'9:01.936',-0.325,-0.205
'9:01.939',-0.320,-0.230
'9:01.942',-0.315,-0.250
'9:01.944',-0.325,-0.275
'9:01.947',-0.340,-0.285
'9:01.950',-0.360,-0.315
'9:01.953',-0.370,-0.315
'9:01.956',-0.365,-0.320
'9:01.958',-0.365,-0.310
'9:01.961',-0.365,-0.300
'9:01.964',-0.360,-0.285
'9:01.967',-0.365,-0.295
'9:01.969',-0.380,-0.290
'9:01.972',-0.395,-0.280
'9:01.975',-0.405,-0.285
'9:01.978',-0.425,-0.290
'9:01.981',-0.445,-0.295
'9:01.983',-0.450,-0.285
'9:01.986',-0.455,-0.275
'9:01.989',-0.465,-0.275
'9:01.992',-0.470,-0.270
'9:01.994',-0.470,-0.255
'9:01.997',-0.475,-0.240
'9:02.000',-0.480,-0.255
'9:02.003',-0.485,-0.250
'9:02.006',-0.490,-0.265
'9:02.008',-0.490,-0.265
'9:02.011',-0.490,-0.270
'9:02.014',-0.485,-0.275
'9:02.017',-0.480,-0.290
'9:02.019',-0.480,-0.290
'9:02.022',-0.490,-0.275
'9:02.025',-0.470,-0.275
'9:02.028',-0.475,-0.275
'9:02.031',-0.470,-0.255
'9:02.033',-0.450,-0.255
'9:02.036',-0.445,-0.270
'9:02.039',-0.445,-0.275
'9:02.042',-0.455,-0.275
'9:02.044',-0.460,-0.290
'9:02.047',-0.450,-0.285
'9:02.050',-0.450,-0.280
'9:02.053',-0.415,-0.290
'9:02.056',-0.360,-0.290
'9:02.058',-0.315,-0.280
'9:02.061',-0.240,-0.275
'9:02.064',-0.175,-0.265
'9:02.067',-0.105,-0.280
'9:02.069',-0.035,-0.280
'9:02.072',0.035,-0.300
'9:02.075',0.100,-0.315
'9:02.078',0.185,-0.345
'9:02.081',0.220,-0.405
'9:02.083',0.240,-0.480
'9:02.086',0.240,-0.550
'9:02.089',0.260,-0.645
'9:02.092',0.305,-0.750
'9:02.094',0.355,-0.835
'9:02.097',0.385,-0.930
'9:02.100',0.365,-1.035
'9:02.103',0.265,-1.115
'9:02.106',0.085,-1.190
'9:02.108',-0.135,-1.215
'9:02.111',-0.360,-1.220
'9:02.114',-0.550,-1.170
'9:02.117',-0.665,-1.090
'9:02.119',-0.715,-0.985
'9:02.122',-0.705,-0.885
'9:02.125',-0.685,-0.785
'9:02.128',-0.665,-0.690
'9:02.131',-0.635,-0.615
'9:02.133',-0.595,-0.560
'9:02.136',-0.565,-0.525
'9:02.139',-0.530,-0.485
'9:02.142',-0.515,-0.430
'9:02.144',-0.525,-0.385
'9:02.147',-0.540,-0.350
'9:02.150',-0.555,-0.325
'9:02.153',-0.555,-0.300
'9:02.156',-0.555,-0.285
'9:02.158',-0.555,-0.265
'9:02.161',-0.550,-0.265
'9:02.164',-0.540,-0.245
'9:02.167',-0.545,-0.260
'9:02.169',-0.530,-0.260
'9:02.172',-0.515,-0.265
'9:02.175',-0.530,-0.260
'9:02.178',-0.535,-0.275
'9:02.181',-0.540,-0.270
'9:02.183',-0.555,-0.270
'9:02.186',-0.550,-0.260
'9:02.189',-0.545,-0.255
'9:02.192',-0.530,-0.245
'9:02.194',-0.520,-0.215
'9:02.197',-0.520,-0.230
'9:02.200',-0.505,-0.220
'9:02.203',-0.515,-0.240
'9:02.206',-0.520,-0.245
'9:02.208',-0.530,-0.235
'9:02.211',-0.530,-0.250
'9:02.214',-0.550,-0.240
'9:02.217',-0.545,-0.235
'9:02.219',-0.545,-0.230
'9:02.222',-0.540,-0.230
'9:02.225',-0.545,-0.230
'9:02.228',-0.550,-0.220
'9:02.231',-0.550,-0.205
'9:02.233',-0.555,-0.205
'9:02.236',-0.560,-0.200
'9:02.239',-0.575,-0.215
'9:02.242',-0.580,-0.220
'9:02.244',-0.585,-0.225
'9:02.247',-0.565,-0.225
'9:02.250',-0.575,-0.225
'9:02.253',-0.575,-0.220
'9:02.256',-0.565,-0.215
'9:02.258',-0.570,-0.205
'9:02.261',-0.555,-0.205
'9:02.264',-0.560,-0.200
'9:02.267',-0.545,-0.185
'9:02.269',-0.540,-0.205
'9:02.272',-0.545,-0.195
'9:02.275',-0.560,-0.190
'9:02.278',-0.570,-0.190
'9:02.281',-0.585,-0.195
'9:02.283',-0.580,-0.195
'9:02.286',-0.565,-0.180
'9:02.289',-0.555,-0.175
'9:02.292',-0.530,-0.180
'9:02.294',-0.525,-0.170
'9:02.297',-0.505,-0.150
'9:02.300',-0.500,-0.145
'9:02.303',-0.520,-0.150
'9:02.306',-0.515,-0.140
'9:02.308',-0.530,-0.150
'9:02.311',-0.525,-0.160
'9:02.314',-0.530,-0.155
'9:02.317',-0.520,-0.150
'9:02.319',-0.495,-0.140
'9:02.322',-0.480,-0.145
'9:02.325',-0.460,-0.135
'9:02.328',-0.440,-0.120
'9:02.331',-0.415,-0.115
'9:02.333',-0.400,-0.125
'9:02.336',-0.410,-0.130
'9:02.339',-0.395,-0.125
'9:02.342',-0.385,-0.125
'9:02.344',-0.390,-0.140
'9:02.347',-0.385,-0.155
'9:02.350',-0.385,-0.150
'9:02.353',-0.400,-0.155
'9:02.356',-0.370,-0.150
'9:02.358',-0.360,-0.155
'9:02.361',-0.355,-0.150
'9:02.364',-0.345,-0.160
'9:02.367',-0.345,-0.155
'9:02.369',-0.350,-0.180
'9:02.372',-0.360,-0.190
'9:02.375',-0.365,-0.200
'9:02.378',-0.370,-0.215
'9:02.381',-0.380,-0.230
'9:02.383',-0.385,-0.230
'9:02.386',-0.390,-0.240
'9:02.389',-0.395,-0.235
'9:02.392',-0.400,-0.225
'9:02.394',-0.400,-0.220
'9:02.397',-0.405,-0.210
'9:02.400',-0.425,-0.210
'9:02.403',-0.440,-0.220
'9:02.406',-0.445,-0.220
'9:02.408',-0.445,-0.240
'9:02.411',-0.430,-0.255
'9:02.414',-0.425,-0.255
'9:02.417',-0.435,-0.260
'9:02.419',-0.420,-0.265
'9:02.422',-0.435,-0.260
'9:02.425',-0.445,-0.265
'9:02.428',-0.450,-0.245
'9:02.431',-0.445,-0.225
'9:02.433',-0.455,-0.230
'9:02.436',-0.455,-0.245
'9:02.439',-0.450,-0.255
'9:02.442',-0.455,-0.260
'9:02.444',-0.455,-0.265
'9:02.447',-0.460,-0.265
'9:02.450',-0.455,-0.265
'9:02.453',-0.465,-0.260
'9:02.456',-0.465,-0.255
'9:02.458',-0.470,-0.245
'9:02.461',-0.470,-0.240
'9:02.464',-0.465,-0.235
'9:02.467',-0.470,-0.255
'9:02.469',-0.460,-0.250
'9:02.472',-0.460,-0.265
'9:02.475',-0.470,-0.260
'9:02.478',-0.470,-0.265
'9:02.481',-0.475,-0.255
'9:02.483',-0.480,-0.265
'9:02.486',-0.470,-0.270
'9:02.489',-0.470,-0.260
'9:02.492',-0.470,-0.255
'9:02.494',-0.460,-0.250
'9:02.497',-0.450,-0.230
'9:02.500',-0.450,-0.240
'9:02.503',-0.460,-0.235
'9:02.506',-0.480,-0.235
'9:02.508',-0.490,-0.235
'9:02.511',-0.515,-0.245
'9:02.514',-0.515,-0.255
'9:02.517',-0.510,-0.240
'9:02.519',-0.490,-0.240
'9:02.522',-0.475,-0.235
'9:02.525',-0.440,-0.240
'9:02.528',-0.435,-0.225
'9:02.531',-0.425,-0.210
'9:02.533',-0.420,-0.220
'9:02.536',-0.420,-0.230
'9:02.539',-0.435,-0.230
'9:02.542',-0.455,-0.230
'9:02.544',-0.455,-0.235
'9:02.547',-0.470,-0.235
'9:02.550',-0.465,-0.230
'9:02.553',-0.455,-0.220
'9:02.556',-0.450,-0.200
'9:02.558',-0.440,-0.190
'9:02.561',-0.430,-0.185
'9:02.564',-0.420,-0.185
'9:02.567',-0.410,-0.175
'9:02.569',-0.400,-0.180
'9:02.572',-0.415,-0.175
'9:02.575',-0.415,-0.180
'9:02.578',-0.410,-0.180
'9:02.581',-0.410,-0.180
'9:02.583',-0.385,-0.185
'9:02.586',-0.380,-0.190
'9:02.589',-0.370,-0.175
'9:02.592',-0.335,-0.190
'9:02.594',-0.335,-0.190
'9:02.597',-0.315,-0.215
'9:02.600',-0.315,-0.215
'9:02.603',-0.320,-0.245
'9:02.606',-0.330,-0.275
'9:02.608',-0.340,-0.285
'9:02.611',-0.355,-0.310
'9:02.614',-0.385,-0.310
'9:02.617',-0.415,-0.300
'9:02.619',-0.420,-0.300
'9:02.622',-0.440,-0.275
'9:02.625',-0.450,-0.255
'9:02.628',-0.450,-0.235
'9:02.631',-0.440,-0.230
'9:02.633',-0.430,-0.240
'9:02.636',-0.440,-0.245
'9:02.639',-0.455,-0.250
'9:02.642',-0.470,-0.260
'9:02.644',-0.505,-0.260
'9:02.647',-0.520,-0.265
'9:02.650',-0.540,-0.245
'9:02.653',-0.535,-0.240
'9:02.656',-0.530,-0.235
'9:02.658',-0.510,-0.240
'9:02.661',-0.505,-0.225
'9:02.664',-0.485,-0.230
'9:02.667',-0.475,-0.230
'9:02.669',-0.485,-0.245
'9:02.672',-0.490,-0.230
'9:02.675',-0.480,-0.250
'9:02.678',-0.495,-0.255
'9:02.681',-0.490,-0.255
'9:02.683',-0.505,-0.265
'9:02.686',-0.515,-0.275
'9:02.689',-0.500,-0.260
'9:02.692',-0.495,-0.245
'9:02.694',-0.485,-0.245
'9:02.697',-0.470,-0.230
'9:02.700',-0.455,-0.240
'9:02.703',-0.455,-0.230
'9:02.706',-0.450,-0.245
'9:02.708',-0.435,-0.260
'9:02.711',-0.425,-0.265
'9:02.714',-0.385,-0.265
'9:02.717',-0.350,-0.275
'9:02.719',-0.280,-0.275
'9:02.722',-0.245,-0.270
'9:02.725',-0.175,-0.255
'9:02.728',-0.100,-0.260
'9:02.731',-0.040,-0.255
'9:02.733',0.020,-0.270
'9:02.736',0.095,-0.285
'9:02.739',0.150,-0.325
'9:02.742',0.185,-0.375
'9:02.744',0.210,-0.440
'9:02.747',0.220,-0.530
'9:02.750',0.220,-0.620
'9:02.753',0.240,-0.720
'9:02.756',0.300,-0.800
'9:02.758',0.360,-0.880
'9:02.761',0.400,-0.970
'9:02.764',0.385,-1.060
'9:02.767',0.290,-1.140
'9:02.769',0.115,-1.210
'9:02.772',-0.090,-1.255
'9:02.775',-0.335,-1.265
'9:02.778',-0.540,-1.225
'9:02.781',-0.680,-1.155
'9:02.783',-0.760,-1.045
'9:02.786',-0.785,-0.940
'9:02.789',-0.765,-0.835
'9:02.792',-0.720,-0.735
'9:02.794',-0.670,-0.660
'9:02.797',-0.630,-0.600
'9:02.800',-0.595,-0.545
'9:02.803',-0.575,-0.495
'9:02.806',-0.560,-0.440
'9:02.808',-0.560,-0.390
'9:02.811',-0.565,-0.330
'9:02.814',-0.570,-0.300
'9:02.817',-0.575,-0.295
'9:02.819',-0.580,-0.265
'9:02.822',-0.570,-0.255
'9:02.825',-0.565,-0.255
'9:02.828',-0.560,-0.245
'9:02.831',-0.550,-0.235
'9:02.833',-0.555,-0.235
'9:02.836',-0.565,-0.235
'9:02.839',-0.570,-0.245
'9:02.842',-0.575,-0.255
'9:02.844',-0.580,-0.240
'9:02.847',-0.585,-0.250
'9:02.850',-0.585,-0.245
'9:02.853',-0.580,-0.235
'9:02.856',-0.580,-0.225
'9:02.858',-0.570,-0.225
'9:02.861',-0.570,-0.220
'9:02.864',-0.570,-0.200
'9:02.867',-0.555,-0.210
'9:02.869',-0.550,-0.220
'9:02.872',-0.565,-0.215
'9:02.875',-0.580,-0.225
'9:02.878',-0.585,-0.230
'9:02.881',-0.605,-0.230
'9:02.883',-0.595,-0.245
'9:02.886',-0.595,-0.220
'9:02.889',-0.595,-0.220
'9:02.892',-0.590,-0.210
'9:02.894',-0.590,-0.200
'9:02.897',-0.595,-0.180
'9:02.900',-0.575,-0.185
'9:02.903',-0.580,-0.200
'9:02.906',-0.605,-0.215
'9:02.908',-0.615,-0.215
'9:02.911',-0.640,-0.225
'9:02.914',-0.650,-0.205
'9:02.917',-0.665,-0.205
'9:02.919',-0.675,-0.195
'9:02.922',-0.665,-0.190
'9:02.925',-0.650,-0.185
'9:02.928',-0.650,-0.175
'9:02.931',-0.635,-0.170
'9:02.933',-0.625,-0.170
'9:02.936',-0.610,-0.170
'9:02.939',-0.620,-0.180
'9:02.942',-0.625,-0.180
'9:02.944',-0.625,-0.175
'9:02.947',-0.655,-0.185
'9:02.950',-0.665,-0.170
'9:02.953',-0.655,-0.170
'9:02.956',-0.650,-0.175
'9:02.958',-0.645,-0.170
'9:02.961',-0.640,-0.150
'9:02.964',-0.630,-0.130
'9:02.967',-0.610,-0.140
'9:02.969',-0.610,-0.130
'9:02.972',-0.620,-0.140
'9:02.975',-0.615,-0.140
'9:02.978',-0.610,-0.130
'9:02.981',-0.610,-0.135
'9:02.983',-0.600,-0.135
'9:02.986',-0.595,-0.115
'9:02.989',-0.570,-0.120
'9:02.992',-0.565,-0.100
'9:02.994',-0.560,-0.100
'9:02.997',-0.540,-0.095
'9:03.000',-0.520,-0.095
'9:03.003',-0.515,-0.105
'9:03.006',-0.505,-0.100
'9:03.008',-0.500,-0.125
'9:03.011',-0.495,-0.130
'9:03.014',-0.485,-0.135
'9:03.017',-0.500,-0.145
'9:03.019',-0.480,-0.140
'9:03.022',-0.490,-0.135
'9:03.025',-0.475,-0.125
'9:03.028',-0.480,-0.125
'9:03.031',-0.475,-0.135
'9:03.033',-0.490,-0.145
'9:03.036',-0.500,-0.155
'9:03.039',-0.505,-0.170
'9:03.042',-0.515,-0.175
'9:03.044',-0.520,-0.195
'9:03.047',-0.525,-0.195
'9:03.050',-0.525,-0.205
'9:03.053',-0.520,-0.200
'9:03.056',-0.530,-0.200
'9:03.058',-0.530,-0.205
'9:03.061',-0.535,-0.200
'9:03.064',-0.550,-0.195
'9:03.067',-0.555,-0.195
'9:03.069',-0.565,-0.205
'9:03.072',-0.565,-0.205
'9:03.075',-0.560,-0.215
'9:03.078',-0.570,-0.240
'9:03.081',-0.565,-0.235
'9:03.083',-0.560,-0.245
'9:03.086',-0.565,-0.240
'9:03.089',-0.555,-0.240
'9:03.092',-0.560,-0.225
'9:03.094',-0.565,-0.220
'9:03.097',-0.555,-0.210
'9:03.100',-0.560,-0.215
'9:03.103',-0.565,-0.240
'9:03.106',-0.565,-0.230
'9:03.108',-0.570,-0.245
'9:03.111',-0.595,-0.240
'9:03.114',-0.605,-0.240
'9:03.117',-0.620,-0.245
'9:03.119',-0.615,-0.235
'9:03.122',-0.600,-0.215
'9:03.125',-0.605,-0.210
'9:03.128',-0.595,-0.215
'9:03.131',-0.590,-0.210
'9:03.133',-0.575,-0.215
'9:03.136',-0.580,-0.215
'9:03.139',-0.585,-0.220
'9:03.142',-0.600,-0.240
'9:03.144',-0.600,-0.240
'9:03.147',-0.615,-0.250
'9:03.150',-0.620,-0.240
'9:03.153',-0.610,-0.230
'9:03.156',-0.605,-0.240
'9:03.158',-0.590,-0.210
'9:03.161',-0.585,-0.205
'9:03.164',-0.585,-0.195
'9:03.167',-0.570,-0.195
'9:03.169',-0.575,-0.215
'9:03.172',-0.585,-0.200
'9:03.175',-0.595,-0.210
'9:03.178',-0.600,-0.215
'9:03.181',-0.625,-0.235
'9:03.183',-0.635,-0.225
'9:03.186',-0.630,-0.220
'9:03.189',-0.625,-0.215
'9:03.192',-0.620,-0.215
'9:03.194',-0.630,-0.205
'9:03.197',-0.610,-0.195
'9:03.200',-0.600,-0.200
'9:03.203',-0.605,-0.210
'9:03.206',-0.585,-0.215
'9:03.208',-0.580,-0.215
'9:03.211',-0.575,-0.225
'9:03.214',-0.585,-0.230
'9:03.217',-0.600,-0.230
'9:03.219',-0.610,-0.210
'9:03.222',-0.620,-0.205
'9:03.225',-0.615,-0.185
'9:03.228',-0.625,-0.180
'9:03.231',-0.615,-0.170
'9:03.233',-0.595,-0.150
'9:03.236',-0.585,-0.150
'9:03.239',-0.570,-0.160
'9:03.242',-0.550,-0.155
'9:03.244',-0.555,-0.165
'9:03.247',-0.535,-0.170
'9:03.250',-0.530,-0.180
'9:03.253',-0.520,-0.170
'9:03.256',-0.515,-0.180
'9:03.258',-0.495,-0.175
'9:03.261',-0.500,-0.190
'9:03.264',-0.485,-0.190
'9:03.267',-0.485,-0.215
'9:03.269',-0.490,-0.245
'9:03.272',-0.500,-0.265
'9:03.275',-0.515,-0.265
'9:03.278',-0.530,-0.285
'9:03.281',-0.550,-0.280
'9:03.283',-0.565,-0.275
'9:03.286',-0.585,-0.250
'9:03.289',-0.595,-0.235
'9:03.292',-0.605,-0.235
'9:03.294',-0.615,-0.220
'9:03.297',-0.615,-0.215
'9:03.300',-0.625,-0.215
'9:03.303',-0.630,-0.220
'9:03.306',-0.635,-0.225
'9:03.308',-0.660,-0.220
'9:03.311',-0.675,-0.225
'9:03.314',-0.695,-0.230
'9:03.317',-0.700,-0.230
'9:03.319',-0.710,-0.215
'9:03.322',-0.695,-0.215
'9:03.325',-0.690,-0.225
'9:03.328',-0.685,-0.210
'9:03.331',-0.685,-0.200
'9:03.333',-0.675,-0.205
'9:03.336',-0.680,-0.210
'9:03.339',-0.685,-0.210
'9:03.342',-0.705,-0.210
'9:03.344',-0.715,-0.215
'9:03.347',-0.710,-0.230
'9:03.350',-0.700,-0.220
'9:03.353',-0.690,-0.220
'9:03.356',-0.690,-0.225
'9:03.358',-0.685,-0.215
'9:03.361',-0.685,-0.210
'9:03.364',-0.675,-0.205
'9:03.367',-0.670,-0.205
'9:03.369',-0.675,-0.215
'9:03.372',-0.675,-0.215
'9:03.375',-0.670,-0.215
'9:03.378',-0.645,-0.220
'9:03.381',-0.635,-0.245
'9:03.383',-0.610,-0.240
'9:03.386',-0.550,-0.235
'9:03.389',-0.490,-0.245
'9:03.392',-0.420,-0.230
'9:03.394',-0.355,-0.230
'9:03.397',-0.260,-0.220
'9:03.400',-0.185,-0.230
'9:03.403',-0.110,-0.260
'9:03.406',-0.030,-0.295
'9:03.408',0.020,-0.335
'9:03.411',0.040,-0.430
'9:03.414',0.055,-0.530
'9:03.417',0.045,-0.630
'9:03.419',0.070,-0.730
'9:03.422',0.125,-0.825
'9:03.425',0.155,-0.935
'9:03.428',0.155,-1.025
'9:03.431',0.080,-1.115
'9:03.433',-0.080,-1.185
'9:03.436',-0.300,-1.235
'9:03.439',-0.545,-1.225
'9:03.442',-0.745,-1.175
'9:03.444',-0.895,-1.100
'9:03.447',-0.975,-1.005
'9:03.450',-0.995,-0.905
'9:03.453',-0.970,-0.800
'9:03.456',-0.940,-0.710
'9:03.458',-0.890,-0.635
'9:03.461',-0.845,-0.575
'9:03.464',-0.825,-0.520
'9:03.467',-0.800,-0.485
'9:03.469',-0.790,-0.430
'9:03.472',-0.780,-0.360
'9:03.475',-0.780,-0.310
'9:03.478',-0.780,-0.260
'9:03.481',-0.790,-0.245
'9:03.483',-0.805,-0.225
'9:03.486',-0.810,-0.210
'9:03.489',-0.810,-0.205
'9:03.492',-0.810,-0.200
'9:03.494',-0.800,-0.200
'9:03.497',-0.790,-0.185
'9:03.500',-0.790,-0.180
'9:03.503',-0.765,-0.190
'9:03.506',-0.770,-0.165
'9:03.508',-0.780,-0.175
'9:03.511',-0.780,-0.175
'9:03.514',-0.795,-0.175
'9:03.517',-0.795,-0.180
'9:03.519',-0.795,-0.165
'9:03.522',-0.795,-0.160
'9:03.525',-0.790,-0.155
'9:03.528',-0.785,-0.145
'9:03.531',-0.770,-0.150
'9:03.533',-0.750,-0.150
'9:03.536',-0.765,-0.150
'9:03.539',-0.760,-0.160
'9:03.542',-0.780,-0.155
'9:03.544',-0.785,-0.165
'9:03.547',-0.785,-0.170
'9:03.550',-0.800,-0.165
'9:03.553',-0.805,-0.155
'9:03.556',-0.805,-0.160
'9:03.558',-0.805,-0.145
'9:03.561',-0.795,-0.145
'9:03.564',-0.795,-0.135
'9:03.567',-0.795,-0.130
'9:03.569',-0.795,-0.135
'9:03.572',-0.795,-0.130
'9:03.575',-0.800,-0.145
'9:03.578',-0.810,-0.150
'9:03.581',-0.820,-0.155
'9:03.583',-0.835,-0.160
'9:03.586',-0.845,-0.155
'9:03.589',-0.830,-0.145
'9:03.592',-0.825,-0.135
'9:03.594',-0.825,-0.120
'9:03.597',-0.825,-0.120
'9:03.600',-0.810,-0.120
'9:03.603',-0.805,-0.125
'9:03.606',-0.810,-0.120
'9:03.608',-0.835,-0.135
'9:03.611',-0.845,-0.135
'9:03.614',-0.840,-0.130
'9:03.617',-0.855,-0.135
'9:03.619',-0.845,-0.125
'9:03.622',-0.830,-0.105
'9:03.625',-0.830,-0.105
'9:03.628',-0.825,-0.090
'9:03.631',-0.820,-0.085
'9:03.633',-0.830,-0.080
'9:03.636',-0.825,-0.085
'9:03.639',-0.800,-0.085
'9:03.642',-0.800,-0.080
'9:03.644',-0.800,-0.060
'9:03.647',-0.800,-0.065
'9:03.650',-0.800,-0.075
'9:03.653',-0.795,-0.055
'9:03.656',-0.785,-0.050
'9:03.658',-0.765,-0.045
'9:03.661',-0.750,-0.040
'9:03.664',-0.735,-0.025
'9:03.667',-0.725,-0.030
'9:03.669',-0.720,-0.040
'9:03.672',-0.705,-0.045
'9:03.675',-0.705,-0.045
'9:03.678',-0.690,-0.055
'9:03.681',-0.685,-0.065
'9:03.683',-0.680,-0.065
'9:03.686',-0.680,-0.060
'9:03.689',-0.670,-0.055
'9:03.692',-0.655,-0.065
'9:03.694',-0.645,-0.060
'9:03.697',-0.635,-0.045
'9:03.700',-0.620,-0.060
'9:03.703',-0.615,-0.080
'9:03.706',-0.625,-0.095
'9:03.708',-0.625,-0.100
'9:03.711',-0.640,-0.120
'9:03.714',-0.660,-0.125
'9:03.717',-0.660,-0.125
'9:03.719',-0.670,-0.130
'9:03.722',-0.665,-0.135
'9:03.725',-0.670,-0.140
'9:03.728',-0.665,-0.145
'9:03.731',-0.660,-0.155
'9:03.733',-0.660,-0.145
'9:03.736',-0.680,-0.165
'9:03.739',-0.675,-0.170
'9:03.742',-0.685,-0.170
'9:03.744',-0.690,-0.180
'9:03.747',-0.705,-0.200
'9:03.750',-0.710,-0.190
'9:03.753',-0.730,-0.180
'9:03.756',-0.725,-0.175
'9:03.758',-0.715,-0.180
'9:03.761',-0.710,-0.185
'9:03.764',-0.700,-0.170
'9:03.767',-0.700,-0.175
'9:03.769',-0.705,-0.190
'9:03.772',-0.720,-0.190
'9:03.775',-0.715,-0.185
'9:03.778',-0.725,-0.200
'9:03.781',-0.730,-0.210
'9:03.783',-0.735,-0.200
'9:03.786',-0.735,-0.205
'9:03.789',-0.745,-0.200
'9:03.792',-0.745,-0.205
'9:03.794',-0.730,-0.195
'9:03.797',-0.730,-0.185
'9:03.800',-0.715,-0.195
'9:03.803',-0.710,-0.190
'9:03.806',-0.710,-0.185
'9:03.808',-0.715,-0.200
'9:03.811',-0.740,-0.210
'9:03.814',-0.745,-0.215
'9:03.817',-0.740,-0.205
'9:03.819',-0.745,-0.205
'9:03.822',-0.745,-0.195
'9:03.825',-0.735,-0.195
'9:03.828',-0.735,-0.190
'9:03.831',-0.730,-0.195
'9:03.833',-0.710,-0.175
'9:03.836',-0.725,-0.180
'9:03.839',-0.720,-0.180
'9:03.842',-0.730,-0.185
'9:03.844',-0.750,-0.185
'9:03.847',-0.745,-0.195
'9:03.850',-0.745,-0.185
'9:03.853',-0.755,-0.195
'9:03.856',-0.760,-0.185
'9:03.858',-0.745,-0.180
'9:03.861',-0.745,-0.175
'9:03.864',-0.725,-0.165
'9:03.867',-0.730,-0.155
'9:03.869',-0.725,-0.165
'9:03.872',-0.720,-0.180
'9:03.875',-0.705,-0.190
'9:03.878',-0.705,-0.190
'9:03.881',-0.715,-0.195
'9:03.883',-0.710,-0.190
'9:03.886',-0.705,-0.175
'9:03.889',-0.720,-0.170
'9:03.892',-0.715,-0.155
'9:03.894',-0.705,-0.145
'9:03.897',-0.675,-0.130
'9:03.900',-0.660,-0.135
'9:03.903',-0.645,-0.125
'9:03.906',-0.655,-0.140
'9:03.908',-0.650,-0.130
'9:03.911',-0.645,-0.130
'9:03.914',-0.640,-0.130
'9:03.917',-0.625,-0.130
'9:03.919',-0.610,-0.125
'9:03.922',-0.605,-0.130
'9:03.925',-0.595,-0.135
'9:03.928',-0.600,-0.130
'9:03.931',-0.590,-0.145
'9:03.933',-0.585,-0.150
'9:03.936',-0.590,-0.180
'9:03.939',-0.590,-0.195
'9:03.942',-0.585,-0.225
'9:03.944',-0.595,-0.240
'9:03.947',-0.605,-0.265
'9:03.950',-0.605,-0.265
'9:03.953',-0.615,-0.250
'9:03.956',-0.635,-0.240
'9:03.958',-0.655,-0.225
'9:03.961',-0.655,-0.210
'9:03.964',-0.660,-0.190
'9:03.967',-0.670,-0.190
'9:03.969',-0.665,-0.195
'9:03.972',-0.670,-0.190
'9:03.975',-0.690,-0.210
'9:03.978',-0.710,-0.200
'9:03.981',-0.715,-0.215
'9:03.983',-0.730,-0.200
'9:03.986',-0.740,-0.190
'9:03.989',-0.750,-0.195
'9:03.992',-0.760,-0.185
'9:03.994',-0.750,-0.170
'9:03.997',-0.745,-0.165
'9:04.000',-0.750,-0.170
'9:04.003',-0.730,-0.175
'9:04.006',-0.730,-0.175
'9:04.008',-0.740,-0.180
'9:04.011',-0.750,-0.195
'9:04.014',-0.745,-0.195
'9:04.017',-0.765,-0.205
'9:04.019',-0.765,-0.195
'9:04.022',-0.745,-0.190
'9:04.025',-0.735,-0.185
'9:04.028',-0.715,-0.185
'9:04.031',-0.715,-0.175
'9:04.033',-0.695,-0.175
'9:04.036',-0.685,-0.190
'9:04.039',-0.675,-0.195
'9:04.042',-0.660,-0.205
'9:04.044',-0.630,-0.215
'9:04.047',-0.575,-0.220
'9:04.050',-0.525,-0.220
'9:04.053',-0.460,-0.205
'9:04.056',-0.395,-0.200
'9:04.058',-0.300,-0.200
'9:04.061',-0.215,-0.195
'9:04.064',-0.115,-0.215
'9:04.067',-0.045,-0.245
'9:04.069',0.010,-0.295
'9:04.072',0.035,-0.380
'9:04.075',0.040,-0.485
'9:04.078',0.050,-0.600
'9:04.081',0.100,-0.715
'9:04.083',0.160,-0.825
'9:04.086',0.185,-0.930
'9:04.089',0.160,-1.035
'9:04.092',0.055,-1.110
'9:04.094',-0.135,-1.170
'9:04.097',-0.350,-1.190
'9:04.100',-0.580,-1.185
'9:04.103',-0.765,-1.150
'9:04.106',-0.910,-1.080
'9:04.108',-0.985,-0.995
'9:04.111',-0.995,-0.895
'9:04.114',-0.970,-0.810
'9:04.117',-0.930,-0.720
'9:04.119',-0.900,-0.640
'9:04.122',-0.875,-0.580
'9:04.125',-0.845,-0.510
'9:04.128',-0.825,-0.450
'9:04.131',-0.810,-0.400
'9:04.133',-0.800,-0.345
'9:04.136',-0.790,-0.295
'9:04.139',-0.785,-0.260
'9:04.142',-0.780,-0.230
'9:04.144',-0.780,-0.220
'9:04.147',-0.800,-0.210
'9:04.150',-0.810,-0.205
'9:04.153',-0.815,-0.200
'9:04.156',-0.810,-0.195
'9:04.158',-0.815,-0.185
'9:04.161',-0.800,-0.180
'9:04.164',-0.790,-0.175
'9:04.167',-0.775,-0.155
'9:04.169',-0.785,-0.170
'9:04.172',-0.795,-0.160
'9:04.175',-0.805,-0.165
'9:04.178',-0.820,-0.160
'9:04.181',-0.810,-0.165
'9:04.183',-0.820,-0.170
'9:04.186',-0.805,-0.160
'9:04.189',-0.805,-0.150
'9:04.192',-0.800,-0.145
'9:04.194',-0.775,-0.135
'9:04.197',-0.780,-0.130
'9:04.200',-0.765,-0.125
'9:04.203',-0.770,-0.125
'9:04.206',-0.775,-0.130
'9:04.208',-0.780,-0.125
'9:04.211',-0.775,-0.150
'9:04.214',-0.785,-0.135
'9:04.217',-0.780,-0.155
'9:04.219',-0.785,-0.160
'9:04.222',-0.785,-0.145
'9:04.225',-0.775,-0.135
'9:04.228',-0.790,-0.125
'9:04.231',-0.775,-0.115
'9:04.233',-0.765,-0.110
'9:04.236',-0.785,-0.115
'9:04.239',-0.780,-0.125
'9:04.242',-0.790,-0.140
'9:04.244',-0.790,-0.145
'9:04.247',-0.800,-0.155
'9:04.250',-0.800,-0.150
'9:04.253',-0.810,-0.145
'9:04.256',-0.810,-0.125
'9:04.258',-0.810,-0.115
'9:04.261',-0.810,-0.110
'9:04.264',-0.795,-0.095
'9:04.267',-0.795,-0.105
'9:04.269',-0.790,-0.110
'9:04.272',-0.785,-0.105
'9:04.275',-0.805,-0.115
'9:04.278',-0.800,-0.120
'9:04.281',-0.815,-0.115
'9:04.283',-0.815,-0.120
'9:04.286',-0.830,-0.110
'9:04.289',-0.830,-0.090
'9:04.292',-0.825,-0.090
'9:04.294',-0.805,-0.085
'9:04.297',-0.795,-0.075
'9:04.300',-0.765,-0.065
'9:04.303',-0.760,-0.070
'9:04.306',-0.770,-0.070
'9:04.308',-0.765,-0.065
'9:04.311',-0.760,-0.075
'9:04.314',-0.770,-0.080
'9:04.317',-0.760,-0.070
'9:04.319',-0.765,-0.075
'9:04.322',-0.750,-0.065
'9:04.325',-0.740,-0.050
'9:04.328',-0.725,-0.040
'9:04.331',-0.715,-0.030
'9:04.333',-0.705,-0.030
'9:04.336',-0.690,-0.040
'9:04.339',-0.685,-0.045
'9:04.342',-0.690,-0.050
'9:04.344',-0.685,-0.050
'9:04.347',-0.685,-0.070
'9:04.350',-0.685,-0.070
'9:04.353',-0.670,-0.060
'9:04.356',-0.655,-0.055
'9:04.358',-0.645,-0.050
'9:04.361',-0.635,-0.040
'9:04.364',-0.615,-0.045
'9:04.367',-0.600,-0.040
'9:04.369',-0.595,-0.050
'9:04.372',-0.605,-0.070
'9:04.375',-0.590,-0.070
'9:04.378',-0.605,-0.070
'9:04.381',-0.600,-0.080
'9:04.383',-0.615,-0.085
'9:04.386',-0.610,-0.085
'9:04.389',-0.615,-0.110
'9:04.392',-0.610,-0.090
'9:04.394',-0.610,-0.095
'9:04.397',-0.590,-0.105
'9:04.400',-0.595,-0.100
'9:04.403',-0.595,-0.115
'9:04.406',-0.600,-0.125
'9:04.408',-0.615,-0.130
'9:04.411',-0.620,-0.150
'9:04.414',-0.635,-0.165
'9:04.417',-0.640,-0.170
'9:04.419',-0.650,-0.155
'9:04.422',-0.650,-0.165
'9:04.425',-0.650,-0.145
'9:04.428',-0.640,-0.150
'9:04.431',-0.635,-0.145
'9:04.433',-0.625,-0.130
'9:04.436',-0.640,-0.135
'9:04.439',-0.640,-0.145
'9:04.442',-0.655,-0.155
'9:04.444',-0.660,-0.180
'9:04.447',-0.675,-0.190
'9:04.450',-0.690,-0.195
'9:04.453',-0.700,-0.190
'9:04.456',-0.705,-0.195
'9:04.458',-0.700,-0.190
'9:04.461',-0.710,-0.180
'9:04.464',-0.715,-0.185
'9:04.467',-0.720,-0.195
'9:04.469',-0.715,-0.215
'9:04.472',-0.735,-0.215
'9:04.475',-0.740,-0.215
'9:04.478',-0.750,-0.230
'9:04.481',-0.745,-0.230
'9:04.483',-0.780,-0.235
'9:04.486',-0.770,-0.220
'9:04.489',-0.775,-0.210
'9:04.492',-0.775,-0.220
'9:04.494',-0.770,-0.210
'9:04.497',-0.765,-0.200
'9:04.500',-0.745,-0.185
'9:04.503',-0.735,-0.170
'9:04.506',-0.740,-0.155
'9:04.508',-0.740,-0.160
'9:04.511',-0.750,-0.145
'9:04.514',-0.745,-0.135
'9:04.517',-0.745,-0.120
'9:04.519',-0.735,-0.120
'9:04.522',-0.745,-0.100
'9:04.525',-0.730,-0.100
'9:04.528',-0.730,-0.080
'9:04.531',-0.730,-0.080
'9:04.533',-0.725,-0.085
'9:04.536',-0.730,-0.100
'9:04.539',-0.730,-0.105
'9:04.542',-0.735,-0.105
'9:04.544',-0.720,-0.110
'9:04.547',-0.730,-0.105
'9:04.550',-0.735,-0.100
'9:04.553',-0.730,-0.100
'9:04.556',-0.725,-0.110
'9:04.558',-0.715,-0.120
'9:04.561',-0.690,-0.120
'9:04.564',-0.690,-0.130
'9:04.567',-0.660,-0.130
'9:04.569',-0.660,-0.140
'9:04.572',-0.650,-0.150
'9:04.575',-0.650,-0.155
'9:04.578',-0.650,-0.155
'9:04.581',-0.650,-0.165
'9:04.583',-0.650,-0.165
'9:04.586',-0.650,-0.175
'9:04.589',-0.630,-0.180
'9:04.592',-0.625,-0.160
'9:04.594',-0.605,-0.165
'9:04.597',-0.580,-0.165
'9:04.600',-0.535,-0.170
'9:04.603',-0.495,-0.170
'9:04.606',-0.440,-0.170
'9:04.608',-0.385,-0.195
'9:04.611',-0.330,-0.195
'9:04.614',-0.255,-0.185
'9:04.617',-0.170,-0.200
'9:04.619',-0.095,-0.200
'9:04.622',-0.025,-0.215
'9:04.625',0.015,-0.265
'9:04.628',0.040,-0.340
'9:04.631',0.060,-0.425
'9:04.633',0.080,-0.525
'9:04.636',0.135,-0.635
'9:04.639',0.180,-0.755
'9:04.642',0.215,-0.870
'9:04.644',0.175,-0.985
'9:04.647',0.055,-1.090
'9:04.650',-0.145,-1.150
'9:04.653',-0.380,-1.155
'9:04.656',-0.610,-1.120
'9:04.658',-0.770,-1.035
'9:04.661',-0.865,-0.920
'9:04.664',-0.905,-0.815
'9:04.667',-0.865,-0.695
'9:04.669',-0.815,-0.630
'9:04.672',-0.770,-0.575
'9:04.675',-0.735,-0.535
'9:04.678',-0.700,-0.490
'9:04.681',-0.685,-0.435
'9:04.683',-0.675,-0.400
'9:04.686',-0.675,-0.335
'9:04.689',-0.670,-0.280
'9:04.692',-0.660,-0.230
'9:04.694',-0.670,-0.205
'9:04.697',-0.680,-0.185
'9:04.700',-0.675,-0.170
'9:04.703',-0.655,-0.170
'9:04.706',-0.655,-0.180
'9:04.708',-0.660,-0.175
'9:04.711',-0.650,-0.185
'9:04.714',-0.655,-0.180
'9:04.717',-0.660,-0.180
'9:04.719',-0.665,-0.165
'9:04.722',-0.665,-0.165
'9:04.725',-0.650,-0.145
'9:04.728',-0.655,-0.130
'9:04.731',-0.655,-0.135
'9:04.733',-0.650,-0.140
'9:04.736',-0.655,-0.130
'9:04.739',-0.650,-0.125
'9:04.742',-0.650,-0.135
'9:04.744',-0.655,-0.140
'9:04.747',-0.670,-0.155
'9:04.750',-0.665,-0.160
'9:04.753',-0.670,-0.150
'9:04.756',-0.665,-0.145
'9:04.758',-0.680,-0.130
'9:04.761',-0.660,-0.130
'9:04.764',-0.655,-0.135
'9:04.767',-0.645,-0.120
'9:04.769',-0.650,-0.135
'9:04.772',-0.650,-0.130
'9:04.775',-0.665,-0.135
'9:04.778',-0.670,-0.145
'9:04.781',-0.665,-0.150
'9:04.783',-0.675,-0.150
'9:04.786',-0.690,-0.150
'9:04.789',-0.685,-0.145
'9:04.792',-0.675,-0.115
'9:04.794',-0.675,-0.110
'9:04.797',-0.660,-0.115
'9:04.800',-0.655,-0.110
'9:04.803',-0.655,-0.120
'9:04.806',-0.655,-0.115
'9:04.808',-0.670,-0.135
'9:04.811',-0.680,-0.135
'9:04.814',-0.670,-0.125
'9:04.817',-0.690,-0.135
'9:04.819',-0.685,-0.125
'9:04.822',-0.680,-0.125
'9:04.825',-0.675,-0.120
'9:04.828',-0.670,-0.110
'9:04.831',-0.660,-0.100
'9:04.833',-0.660,-0.095
'9:04.836',-0.645,-0.090
'9:04.839',-0.650,-0.095
'9:04.842',-0.640,-0.095
'9:04.844',-0.660,-0.100
'9:04.847',-0.660,-0.095
'9:04.850',-0.650,-0.110
'9:04.853',-0.645,-0.090
'9:04.856',-0.635,-0.090
'9:04.858',-0.625,-0.070
'9:04.861',-0.615,-0.070
'9:04.864',-0.600,-0.055
'9:04.867',-0.590,-0.030
'9:04.869',-0.575,-0.040
'9:04.872',-0.575,-0.060
'9:04.875',-0.575,-0.060
'9:04.878',-0.570,-0.065
'9:04.881',-0.570,-0.075
'9:04.883',-0.570,-0.085
'9:04.886',-0.565,-0.070
'9:04.889',-0.550,-0.065
'9:04.892',-0.535,-0.050
'9:04.894',-0.520,-0.065
'9:04.897',-0.515,-0.055
'9:04.900',-0.510,-0.055
'9:04.903',-0.495,-0.055
'9:04.906',-0.485,-0.070
'9:04.908',-0.470,-0.075
'9:04.911',-0.470,-0.085
'9:04.914',-0.480,-0.100
'9:04.917',-0.485,-0.105
'9:04.919',-0.490,-0.110
'9:04.922',-0.490,-0.110
'9:04.925',-0.500,-0.110
'9:04.928',-0.480,-0.115
'9:04.931',-0.485,-0.110
'9:04.933',-0.480,-0.110
'9:04.936',-0.470,-0.115
'9:04.939',-0.470,-0.125
'9:04.942',-0.480,-0.140
'9:04.944',-0.505,-0.155
'9:04.947',-0.505,-0.155
'9:04.950',-0.510,-0.170
'9:04.953',-0.535,-0.160
'9:04.956',-0.525,-0.180
'9:04.958',-0.515,-0.175
'9:04.961',-0.520,-0.170
'9:04.964',-0.530,-0.155
'9:04.967',-0.530,-0.160
'9:04.969',-0.535,-0.175
'9:04.972',-0.535,-0.175
'9:04.975',-0.540,-0.190
'9:04.978',-0.545,-0.185
'9:04.981',-0.550,-0.195
'9:04.983',-0.555,-0.210
'9:04.986',-0.565,-0.195
'9:04.989',-0.565,-0.195
'9:04.992',-0.560,-0.190
'9:04.994',-0.560,-0.190
'9:04.997',-0.545,-0.175
'9:05.000',-0.555,-0.180
'9:05.003',-0.545,-0.195
'9:05.006',-0.555,-0.210
'9:05.008',-0.545,-0.210
'9:05.011',-0.565,-0.215
'9:05.014',-0.570,-0.210
'9:05.017',-0.575,-0.210
'9:05.019',-0.575,-0.210
'9:05.022',-0.590,-0.210
'9:05.025',-0.585,-0.200
'9:05.028',-0.565,-0.185
'9:05.031',-0.575,-0.195
'9:05.033',-0.550,-0.195
'9:05.036',-0.545,-0.195
'9:05.039',-0.560,-0.200
'9:05.042',-0.570,-0.205
'9:05.044',-0.580,-0.200
'9:05.047',-0.590,-0.210
'9:05.050',-0.595,-0.215
'9:05.053',-0.605,-0.215
'9:05.056',-0.600,-0.215
'9:05.058',-0.590,-0.205
'9:05.061',-0.575,-0.205
'9:05.064',-0.570,-0.185
'9:05.067',-0.555,-0.170
'9:05.069',-0.555,-0.180
'9:05.072',-0.550,-0.180
'9:05.075',-0.560,-0.195
'9:05.078',-0.565,-0.205
'9:05.081',-0.565,-0.195
'9:05.083',-0.565,-0.215
'9:05.086',-0.575,-0.205
'9:05.089',-0.580,-0.205
'9:05.092',-0.575,-0.200
'9:05.094',-0.555,-0.205
'9:05.097',-0.555,-0.190
'9:05.100',-0.550,-0.180
'9:05.103',-0.545,-0.195
'9:05.106',-0.545,-0.190
'9:05.108',-0.550,-0.200
'9:05.111',-0.565,-0.215
'9:05.114',-0.570,-0.215
'9:05.117',-0.565,-0.210
'9:05.119',-0.565,-0.200
'9:05.122',-0.565,-0.215
'9:05.125',-0.565,-0.200
'9:05.128',-0.560,-0.205
'9:05.131',-0.555,-0.190
'9:05.133',-0.545,-0.195
'9:05.136',-0.545,-0.190
'9:05.139',-0.535,-0.190
'9:05.142',-0.550,-0.195
'9:05.144',-0.545,-0.200
'9:05.147',-0.545,-0.205
'9:05.150',-0.550,-0.220
'9:05.153',-0.545,-0.215
'9:05.156',-0.540,-0.210
'9:05.158',-0.545,-0.195
'9:05.161',-0.545,-0.190
'9:05.164',-0.540,-0.185
'9:05.167',-0.535,-0.180
'9:05.169',-0.530,-0.200
'9:05.172',-0.550,-0.195
'9:05.175',-0.555,-0.215
'9:05.178',-0.550,-0.210
'9:05.181',-0.550,-0.215
'9:05.183',-0.545,-0.225
'9:05.186',-0.540,-0.215
'9:05.189',-0.540,-0.210
'9:05.192',-0.540,-0.195
'9:05.194',-0.540,-0.190
'9:05.197',-0.535,-0.180
'9:05.200',-0.535,-0.185
'9:05.203',-0.540,-0.175
'9:05.206',-0.545,-0.190
'9:05.208',-0.545,-0.195
'9:05.211',-0.550,-0.210
'9:05.214',-0.565,-0.215
'9:05.217',-0.565,-0.215
'9:05.219',-0.575,-0.205
'9:05.222',-0.570,-0.205
'9:05.225',-0.555,-0.210
'9:05.228',-0.555,-0.195
'9:05.231',-0.540,-0.195
'9:05.233',-0.535,-0.190
'9:05.236',-0.540,-0.200
'9:05.239',-0.555,-0.190
'9:05.242',-0.535,-0.195
'9:05.244',-0.530,-0.215
'9:05.247',-0.540,-0.215
'9:05.250',-0.520,-0.215
'9:05.253',-0.525,-0.210
'9:05.256',-0.510,-0.210
'9:05.258',-0.500,-0.190
'9:05.261',-0.490,-0.180
'9:05.264',-0.485,-0.165
'9:05.267',-0.480,-0.150
'9:05.269',-0.480,-0.140
'9:05.272',-0.480,-0.135
'9:05.275',-0.480,-0.140
'9:05.278',-0.470,-0.155
'9:05.281',-0.475,-0.145
'9:05.283',-0.460,-0.150
'9:05.286',-0.455,-0.145
'9:05.289',-0.440,-0.145
'9:05.292',-0.435,-0.150
'9:05.294',-0.420,-0.145
'9:05.297',-0.410,-0.145
'9:05.300',-0.405,-0.165
'9:05.303',-0.410,-0.180
'9:05.306',-0.415,-0.205
'9:05.308',-0.425,-0.225
'9:05.311',-0.430,-0.255
'9:05.314',-0.440,-0.260
'9:05.317',-0.455,-0.270
'9:05.319',-0.470,-0.260
'9:05.322',-0.475,-0.245
'9:05.325',-0.480,-0.235
'9:05.328',-0.475,-0.225
'9:05.331',-0.490,-0.215
'9:05.333',-0.490,-0.215
'9:05.336',-0.510,-0.205
'9:05.339',-0.525,-0.210
'9:05.342',-0.545,-0.210
'9:05.344',-0.560,-0.215
'9:05.347',-0.570,-0.215
'9:05.350',-0.580,-0.215
'9:05.353',-0.590,-0.200
'9:05.356',-0.585,-0.205
'9:05.358',-0.590,-0.195
'9:05.361',-0.575,-0.205
'9:05.364',-0.570,-0.195
'9:05.367',-0.555,-0.195
'9:05.369',-0.545,-0.210
'9:05.372',-0.550,-0.200
'9:05.375',-0.550,-0.215
'9:05.378',-0.555,-0.215
'9:05.381',-0.555,-0.220
'9:05.383',-0.555,-0.220
'9:05.386',-0.565,-0.235
'9:05.389',-0.555,-0.225
'9:05.392',-0.545,-0.205
'9:05.394',-0.535,-0.215
'9:05.397',-0.525,-0.205
'9:05.400',-0.495,-0.190
'9:05.403',-0.465,-0.210
'9:05.406',-0.450,-0.210
'9:05.408',-0.410,-0.220
'9:05.411',-0.365,-0.220
'9:05.414',-0.300,-0.235
'9:05.417',-0.250,-0.235
'9:05.419',-0.175,-0.240
'9:05.422',-0.095,-0.245
'9:05.425',-0.005,-0.255
'9:05.428',0.085,-0.260
'9:05.431',0.160,-0.280
'9:05.433',0.220,-0.330
'9:05.436',0.245,-0.425
'9:05.439',0.270,-0.525
'9:05.442',0.290,-0.650
'9:05.444',0.335,-0.765
'9:05.447',0.385,-0.880
'9:05.450',0.405,-1.000
'9:05.453',0.360,-1.085
'9:05.456',0.195,-1.180
'9:05.458',-0.025,-1.235
'9:05.461',-0.280,-1.225
'9:05.464',-0.530,-1.170
'9:05.467',-0.715,-1.065
'9:05.469',-0.825,-0.945
'9:05.472',-0.860,-0.810
'9:05.475',-0.835,-0.695
'9:05.478',-0.770,-0.600
'9:05.481',-0.720,-0.545
'9:05.483',-0.675,-0.485
'9:05.486',-0.650,-0.430
'9:05.489',-0.615,-0.345
'9:05.492',-0.620,-0.285
'9:05.494',-0.610,-0.240
'9:05.497',-0.635,-0.210
'9:05.500',-0.625,-0.195
'9:05.503',-0.635,-0.195
'9:05.506',-0.635,-0.200
'9:05.508',-0.640,-0.195
'9:05.511',-0.640,-0.200
'9:05.514',-0.640,-0.200
'9:05.517',-0.635,-0.200
'9:05.519',-0.650,-0.190
'9:05.522',-0.645,-0.180
'9:05.525',-0.640,-0.170
'9:05.528',-0.635,-0.160
'9:05.531',-0.630,-0.160
'9:05.533',-0.625,-0.150
'9:05.536',-0.620,-0.150
'9:05.539',-0.625,-0.155
'9:05.542',-0.625,-0.175
'9:05.544',-0.640,-0.175
'9:05.547',-0.645,-0.175
'9:05.550',-0.650,-0.185
'9:05.553',-0.660,-0.175
'9:05.556',-0.650,-0.170
'9:05.558',-0.655,-0.165
'9:05.561',-0.635,-0.165
'9:05.564',-0.640,-0.140
'9:05.567',-0.635,-0.140
'9:05.569',-0.655,-0.145
'9:05.572',-0.635,-0.140
'9:05.575',-0.645,-0.160
'9:05.578',-0.650,-0.155
'9:05.581',-0.660,-0.160
'9:05.583',-0.665,-0.165
'9:05.586',-0.680,-0.170
'9:05.589',-0.670,-0.150
'9:05.592',-0.665,-0.155
'9:05.594',-0.665,-0.145
'9:05.597',-0.655,-0.135
'9:05.600',-0.655,-0.130
'9:05.603',-0.650,-0.140
'9:05.606',-0.670,-0.135
'9:05.608',-0.685,-0.135
'9:05.611',-0.675,-0.145
'9:05.614',-0.685,-0.150
'9:05.617',-0.675,-0.155
'9:05.619',-0.680,-0.145
'9:05.622',-0.660,-0.145
'9:05.625',-0.660,-0.135
'9:05.628',-0.680,-0.125
'9:05.631',-0.680,-0.115
'9:05.633',-0.670,-0.110
'9:05.636',-0.660,-0.095
'9:05.639',-0.645,-0.105
'9:05.642',-0.640,-0.100
'9:05.644',-0.655,-0.105
'9:05.647',-0.660,-0.115
'9:05.650',-0.670,-0.115
'9:05.653',-0.670,-0.100
'9:05.656',-0.660,-0.090
'9:05.658',-0.665,-0.080
'9:05.661',-0.655,-0.070
'9:05.664',-0.640,-0.055
'9:05.667',-0.635,-0.050
'9:05.669',-0.625,-0.065
'9:05.672',-0.635,-0.055
'9:05.675',-0.625,-0.055
'9:05.678',-0.620,-0.070
'9:05.681',-0.605,-0.070
'9:05.683',-0.595,-0.080
'9:05.686',-0.590,-0.060
'9:05.689',-0.565,-0.070
'9:05.692',-0.560,-0.065
'9:05.694',-0.545,-0.050
'9:05.697',-0.520,-0.040
'9:05.700',-0.525,-0.035
'9:05.703',-0.510,-0.045
'9:05.706',-0.500,-0.045
'9:05.708',-0.485,-0.060
'9:05.711',-0.480,-0.070
'9:05.714',-0.490,-0.090
'9:05.717',-0.480,-0.105
'9:05.719',-0.475,-0.095
'9:05.722',-0.475,-0.100
'9:05.725',-0.475,-0.090
'9:05.728',-0.465,-0.095
'9:05.731',-0.465,-0.095
'9:05.733',-0.460,-0.090
'9:05.736',-0.445,-0.115
'9:05.739',-0.450,-0.120
'9:05.742',-0.445,-0.135
'9:05.744',-0.455,-0.155
'9:05.747',-0.455,-0.160
'9:05.750',-0.470,-0.170
'9:05.753',-0.465,-0.160
'9:05.756',-0.460,-0.165
'9:05.758',-0.450,-0.165
'9:05.761',-0.435,-0.155
'9:05.764',-0.455,-0.160
'9:05.767',-0.460,-0.155
'9:05.769',-0.460,-0.165
'9:05.772',-0.465,-0.175
'9:05.775',-0.455,-0.190
'9:05.778',-0.460,-0.195
'9:05.781',-0.475,-0.210
'9:05.783',-0.480,-0.210
'9:05.786',-0.480,-0.200
'9:05.789',-0.495,-0.200
'9:05.792',-0.475,-0.210
'9:05.794',-0.480,-0.200
'9:05.797',-0.480,-0.195
'9:05.800',-0.470,-0.185
'9:05.803',-0.460,-0.190
'9:05.806',-0.475,-0.190
'9:05.808',-0.465,-0.215
'9:05.811',-0.480,-0.205
'9:05.814',-0.495,-0.220
'9:05.817',-0.495,-0.230
'9:05.819',-0.490,-0.225
'9:05.822',-0.510,-0.225
'9:05.825',-0.505,-0.215
'9:05.828',-0.495,-0.205
'9:05.831',-0.500,-0.215
'9:05.833',-0.495,-0.205
'9:05.836',-0.495,-0.215
'9:05.839',-0.510,-0.225
'9:05.842',-0.525,-0.230
'9:05.844',-0.520,-0.230
'9:05.847',-0.520,-0.240
'9:05.850',-0.500,-0.250
'9:05.853',-0.505,-0.235
'9:05.856',-0.500,-0.240
'9:05.858',-0.490,-0.230
'9:05.861',-0.500,-0.215
'9:05.864',-0.510,-0.225
'9:05.867',-0.510,-0.210
'9:05.869',-0.510,-0.210
'9:05.872',-0.510,-0.210
'9:05.875',-0.505,-0.210
'9:05.878',-0.515,-0.220
'9:05.881',-0.515,-0.225
'9:05.883',-0.535,-0.225
'9:05.886',-0.535,-0.225
'9:05.889',-0.510,-0.220
'9:05.892',-0.515,-0.220
'9:05.894',-0.515,-0.210
'9:05.897',-0.500,-0.195
'9:05.900',-0.495,-0.195
'9:05.903',-0.495,-0.200
'9:05.906',-0.490,-0.200
'9:05.908',-0.495,-0.200
'9:05.911',-0.485,-0.225
'9:05.914',-0.485,-0.210
'9:05.917',-0.475,-0.215
'9:05.919',-0.465,-0.215
'9:05.922',-0.450,-0.215
'9:05.925',-0.445,-0.200
'9:05.928',-0.440,-0.195
'9:05.931',-0.440,-0.185
'9:05.933',-0.445,-0.180
'9:05.936',-0.435,-0.180
'9:05.939',-0.430,-0.180
'9:05.942',-0.430,-0.180
'9:05.944',-0.435,-0.170
'9:05.947',-0.430,-0.180
'9:05.950',-0.415,-0.170
'9:05.953',-0.405,-0.175
'9:05.956',-0.385,-0.160
'9:05.958',-0.365,-0.150
'9:05.961',-0.360,-0.145
'9:05.964',-0.350,-0.150
'9:05.967',-0.335,-0.150
'9:05.969',-0.335,-0.160
'9:05.972',-0.330,-0.170
'9:05.975',-0.335,-0.180
'9:05.978',-0.340,-0.200
'9:05.981',-0.335,-0.225
'9:05.983',-0.340,-0.240
'9:05.986',-0.350,-0.255
'9:05.989',-0.355,-0.265
'9:05.992',-0.355,-0.265
'9:05.994',-0.365,-0.265
'9:05.997',-0.365,-0.275
'9:06.000',-0.370,-0.250
'9:06.003',-0.390,-0.260
'9:06.006',-0.405,-0.250
'9:06.008',-0.415,-0.250
'9:06.011',-0.420,-0.255
'9:06.014',-0.425,-0.260
'9:06.017',-0.440,-0.270
'9:06.019',-0.455,-0.255
'9:06.022',-0.460,-0.245
'9:06.025',-0.460,-0.235
'9:06.028',-0.470,-0.215
'9:06.031',-0.475,-0.215
'9:06.033',-0.480,-0.205
'9:06.036',-0.485,-0.205
'9:06.039',-0.495,-0.210
'9:06.042',-0.500,-0.205
'9:06.044',-0.520,-0.215
'9:06.047',-0.515,-0.225
'9:06.050',-0.515,-0.235
'9:06.053',-0.505,-0.230
'9:06.056',-0.490,-0.220
'9:06.058',-0.465,-0.215
'9:06.061',-0.460,-0.210
'9:06.064',-0.460,-0.205
'9:06.067',-0.455,-0.215
'9:06.069',-0.460,-0.205
'9:06.072',-0.480,-0.215
'9:06.075',-0.485,-0.225
'9:06.078',-0.475,-0.230
'9:06.081',-0.455,-0.240
'9:06.083',-0.450,-0.240
'9:06.086',-0.420,-0.245
'9:06.089',-0.375,-0.240
'9:06.092',-0.335,-0.250
'9:06.094',-0.275,-0.235
'9:06.097',-0.200,-0.240
'9:06.100',-0.145,-0.225
'9:06.103',-0.070,-0.230
'9:06.106',-0.025,-0.235
'9:06.108',0.050,-0.250
'9:06.111',0.130,-0.275
'9:06.114',0.190,-0.310
'9:06.117',0.240,-0.350
'9:06.119',0.255,-0.425
'9:06.122',0.295,-0.510
'9:06.125',0.330,-0.615
'9:06.128',0.380,-0.720
'9:06.131',0.460,-0.820
'9:06.133',0.480,-0.935
'9:06.136',0.450,-1.055
'9:06.139',0.330,-1.170
'9:06.142',0.110,-1.235
'9:06.144',-0.130,-1.275
'9:06.147',-0.360,-1.260
'9:06.150',-0.565,-1.205
'9:06.153',-0.670,-1.115
'9:06.156',-0.725,-1.000
'9:06.158',-0.730,-0.885
'9:06.161',-0.705,-0.770
'9:06.164',-0.655,-0.680
'9:06.167',-0.605,-0.600
'9:06.169',-0.570,-0.555
'9:06.172',-0.545,-0.505
'9:06.175',-0.535,-0.445
'9:06.178',-0.540,-0.400
'9:06.181',-0.535,-0.345
'9:06.183',-0.530,-0.310
'9:06.186',-0.530,-0.260
'9:06.189',-0.535,-0.245
'9:06.192',-0.510,-0.235
'9:06.194',-0.510,-0.220
'9:06.197',-0.515,-0.225
'9:06.200',-0.510,-0.210
'9:06.203',-0.510,-0.220
'9:06.206',-0.525,-0.220
'9:06.208',-0.510,-0.215
'9:06.211',-0.520,-0.220
'9:06.214',-0.520,-0.220
'9:06.217',-0.530,-0.215
'9:06.219',-0.525,-0.220
'9:06.222',-0.530,-0.215
'9:06.225',-0.525,-0.200
'9:06.228',-0.515,-0.195
'9:06.231',-0.520,-0.185
'9:06.233',-0.510,-0.185
'9:06.236',-0.500,-0.180
'9:06.239',-0.505,-0.190
'9:06.242',-0.500,-0.190
'9:06.244',-0.505,-0.195
'9:06.247',-0.535,-0.205
'9:06.250',-0.530,-0.205
'9:06.253',-0.550,-0.190
'9:06.256',-0.545,-0.200
'9:06.258',-0.540,-0.180
'9:06.261',-0.535,-0.180
'9:06.264',-0.525,-0.180
'9:06.267',-0.525,-0.160
'9:06.269',-0.515,-0.175
'9:06.272',-0.510,-0.175
'9:06.275',-0.510,-0.175
'9:06.278',-0.520,-0.175
'9:06.281',-0.525,-0.180
'9:06.283',-0.545,-0.195
'9:06.286',-0.540,-0.200
'9:06.289',-0.545,-0.200
'9:06.292',-0.555,-0.195
'9:06.294',-0.535,-0.175
'9:06.297',-0.540,-0.185
'9:06.300',-0.530,-0.155
'9:06.303',-0.530,-0.160
'9:06.306',-0.535,-0.165
'9:06.308',-0.535,-0.175
'9:06.311',-0.520,-0.180
'9:06.314',-0.530,-0.180
'9:06.317',-0.540,-0.180
'9:06.319',-0.540,-0.175
'9:06.322',-0.550,-0.175
'9:06.325',-0.550,-0.160
'9:06.328',-0.535,-0.155
'9:06.331',-0.525,-0.140
'9:06.333',-0.515,-0.130
'9:06.336',-0.515,-0.140
'9:06.339',-0.510,-0.145
'9:06.342',-0.515,-0.140
'9:06.344',-0.510,-0.140
'9:06.347',-0.505,-0.145
'9:06.350',-0.500,-0.140
'9:06.353',-0.505,-0.130
'9:06.356',-0.500,-0.130
'9:06.358',-0.480,-0.135
'9:06.361',-0.465,-0.130
'9:06.364',-0.450,-0.110
'9:06.367',-0.440,-0.105
'9:06.369',-0.425,-0.110
'9:06.372',-0.420,-0.120
'9:06.375',-0.415,-0.115
'9:06.378',-0.410,-0.125
'9:06.381',-0.400,-0.145
'9:06.383',-0.400,-0.145
'9:06.386',-0.400,-0.145
'9:06.389',-0.400,-0.130
'9:06.392',-0.390,-0.130
'9:06.394',-0.390,-0.115
'9:06.397',-0.375,-0.125
'9:06.400',-0.375,-0.120
'9:06.403',-0.365,-0.125
'9:06.406',-0.360,-0.135
'9:06.408',-0.355,-0.135
'9:06.411',-0.355,-0.165
'9:06.414',-0.365,-0.165
'9:06.417',-0.375,-0.175
'9:06.419',-0.370,-0.185
'9:06.422',-0.380,-0.180
'9:06.425',-0.385,-0.175
'9:06.428',-0.385,-0.175
'9:06.431',-0.390,-0.170
'9:06.433',-0.385,-0.185
'9:06.436',-0.390,-0.190
'9:06.439',-0.390,-0.200
'9:06.442',-0.400,-0.215
'9:06.444',-0.405,-0.220
'9:06.447',-0.415,-0.230
'9:06.450',-0.425,-0.240
'9:06.453',-0.425,-0.240
'9:06.456',-0.440,-0.235
'9:06.458',-0.455,-0.240
'9:06.461',-0.460,-0.235
'9:06.464',-0.465,-0.225
'9:06.467',-0.440,-0.225
'9:06.469',-0.435,-0.220
'9:06.472',-0.440,-0.225
'9:06.475',-0.440,-0.220
'9:06.478',-0.455,-0.245
'9:06.481',-0.475,-0.250
'9:06.483',-0.485,-0.250
'9:06.486',-0.485,-0.260
'9:06.489',-0.465,-0.250
'9:06.492',-0.465,-0.240
'9:06.494',-0.455,-0.235
'9:06.497',-0.450,-0.230
'9:06.500',-0.455,-0.235
'9:06.503',-0.440,-0.230
'9:06.506',-0.445,-0.240
'9:06.508',-0.460,-0.245
'9:06.511',-0.475,-0.250
'9:06.514',-0.480,-0.250
'9:06.517',-0.495,-0.250
'9:06.519',-0.500,-0.255
'9:06.522',-0.505,-0.255
'9:06.525',-0.500,-0.240
'9:06.528',-0.485,-0.235
'9:06.531',-0.475,-0.230
'9:06.533',-0.480,-0.230
'9:06.536',-0.470,-0.220
'9:06.539',-0.480,-0.225
'9:06.542',-0.485,-0.240
'9:06.544',-0.475,-0.245
'9:06.547',-0.485,-0.250
'9:06.550',-0.495,-0.250
'9:06.553',-0.500,-0.255
'9:06.556',-0.495,-0.255
'9:06.558',-0.500,-0.230
'9:06.561',-0.485,-0.230
'9:06.564',-0.485,-0.210
'9:06.567',-0.470,-0.215
'9:06.569',-0.465,-0.205
'9:06.572',-0.465,-0.215
'9:06.575',-0.450,-0.220
'9:06.578',-0.465,-0.225
'9:06.581',-0.465,-0.235
'9:06.583',-0.480,-0.235
'9:06.586',-0.465,-0.245
'9:06.589',-0.470,-0.230
'9:06.592',-0.465,-0.235
'9:06.594',-0.450,-0.225
'9:06.597',-0.455,-0.235
'9:06.600',-0.430,-0.225
'9:06.603',-0.435,-0.230
'9:06.606',-0.440,-0.220
'9:06.608',-0.445,-0.235
'9:06.611',-0.465,-0.235
'9:06.614',-0.480,-0.235
'9:06.617',-0.490,-0.235
'9:06.619',-0.500,-0.235
'9:06.622',-0.490,-0.240
'9:06.625',-0.485,-0.215
'9:06.628',-0.475,-0.205
'9:06.631',-0.460,-0.195
'9:06.633',-0.445,-0.185
'9:06.636',-0.425,-0.180
'9:06.639',-0.430,-0.210
'9:06.642',-0.430,-0.220
'9:06.644',-0.435,-0.245
'9:06.647',-0.445,-0.260
'9:06.650',-0.460,-0.265
'9:06.653',-0.460,-0.280
'9:06.656',-0.460,-0.295
'9:06.658',-0.470,-0.290
'9:06.661',-0.455,-0.290
'9:06.664',-0.445,-0.290
'9:06.667',-0.445,-0.275
'9:06.669',-0.430,-0.275
'9:06.672',-0.440,-0.275
'9:06.675',-0.445,-0.265
'9:06.678',-0.455,-0.255
'9:06.681',-0.480,-0.265
'9:06.683',-0.500,-0.260
'9:06.686',-0.510,-0.255
'9:06.689',-0.505,-0.245
'9:06.692',-0.495,-0.260
'9:06.694',-0.485,-0.250
'9:06.697',-0.475,-0.240
'9:06.700',-0.455,-0.230
'9:06.703',-0.440,-0.230
'9:06.706',-0.440,-0.235
'9:06.708',-0.425,-0.250
'9:06.711',-0.440,-0.270
'9:06.714',-0.440,-0.265
'9:06.717',-0.450,-0.270
'9:06.719',-0.445,-0.275
'9:06.722',-0.435,-0.260
'9:06.725',-0.425,-0.260
'9:06.728',-0.395,-0.255
'9:06.731',-0.375,-0.250
'9:06.733',-0.330,-0.250
'9:06.736',-0.280,-0.255
'9:06.739',-0.235,-0.260
'9:06.742',-0.175,-0.265
'9:06.744',-0.125,-0.280
'9:06.747',-0.075,-0.275
'9:06.750',-0.010,-0.280
'9:06.753',0.050,-0.285
'9:06.756',0.135,-0.300
'9:06.758',0.200,-0.320
'9:06.761',0.255,-0.345
'9:06.764',0.295,-0.405
'9:06.767',0.325,-0.490
'9:06.769',0.350,-0.595
'9:06.772',0.385,-0.700
'9:06.775',0.435,-0.795
'9:06.778',0.470,-0.895
'9:06.781',0.460,-0.995
'9:06.783',0.395,-1.085
'9:06.786',0.270,-1.175
'9:06.789',0.085,-1.240
'9:06.792',-0.105,-1.270
'9:06.794',-0.305,-1.280
'9:06.797',-0.475,-1.245
'9:06.800',-0.575,-1.160
'9:06.803',-0.630,-1.080
'9:06.806',-0.655,-0.980
'9:06.808',-0.645,-0.885
'9:06.811',-0.630,-0.790
'9:06.814',-0.610,-0.715
'9:06.817',-0.595,-0.655
'9:06.819',-0.580,-0.595
'9:06.822',-0.550,-0.535
'9:06.825',-0.525,-0.470
'9:06.828',-0.500,-0.400
'9:06.831',-0.480,-0.345
'9:06.833',-0.460,-0.275
'9:06.836',-0.455,-0.255
'9:06.839',-0.470,-0.265
'9:06.842',-0.485,-0.255
'9:06.844',-0.490,-0.265
'9:06.847',-0.505,-0.270
'9:06.850',-0.510,-0.265
'9:06.853',-0.520,-0.260
'9:06.856',-0.520,-0.255
'9:06.858',-0.525,-0.230
'9:06.861',-0.515,-0.235
'9:06.864',-0.515,-0.210
'9:06.867',-0.505,-0.220
'9:06.869',-0.500,-0.210
'9:06.872',-0.485,-0.225
'9:06.875',-0.485,-0.220
'9:06.878',-0.475,-0.230
'9:06.881',-0.480,-0.225
'9:06.883',-0.475,-0.230
'9:06.886',-0.475,-0.235
'9:06.889',-0.490,-0.225
'9:06.892',-0.510,-0.225
'9:06.894',-0.500,-0.215
'9:06.897',-0.500,-0.200
'9:06.900',-0.495,-0.205
'9:06.903',-0.490,-0.195
'9:06.906',-0.500,-0.205
'9:06.908',-0.480,-0.210
'9:06.911',-0.500,-0.220
'9:06.914',-0.505,-0.225
'9:06.917',-0.510,-0.220
'9:06.919',-0.530,-0.220
'9:06.922',-0.520,-0.200
'9:06.925',-0.520,-0.195
'9:06.928',-0.515,-0.190
'9:06.931',-0.515,-0.180
'9:06.933',-0.505,-0.180
'9:06.936',-0.500,-0.185
'9:06.939',-0.495,-0.190
'9:06.942',-0.500,-0.195
'9:06.944',-0.500,-0.220
'9:06.947',-0.510,-0.205
'9:06.950',-0.510,-0.205
'9:06.953',-0.535,-0.210
'9:06.956',-0.535,-0.200
'9:06.958',-0.540,-0.195
'9:06.961',-0.530,-0.175
'9:06.964',-0.525,-0.175
'9:06.967',-0.515,-0.170
'9:06.969',-0.510,-0.160
'9:06.972',-0.500,-0.165
'9:06.975',-0.500,-0.165
'9:06.978',-0.520,-0.175
'9:06.981',-0.520,-0.180
'9:06.983',-0.530,-0.185
'9:06.986',-0.520,-0.185
'9:06.989',-0.530,-0.170
'9:06.992',-0.525,-0.160
'9:06.994',-0.510,-0.135
'9:06.997',-0.500,-0.145
'9:07.000',-0.475,-0.135
'9:07.003',-0.475,-0.120
'9:07.006',-0.475,-0.130
'9:07.008',-0.475,-0.120
'9:07.011',-0.480,-0.130
'9:07.014',-0.470,-0.130
'9:07.017',-0.460,-0.125
'9:07.019',-0.450,-0.135
'9:07.022',-0.460,-0.120
'9:07.025',-0.435,-0.120
'9:07.028',-0.440,-0.100
'9:07.031',-0.410,-0.110
'9:07.033',-0.395,-0.090
'9:07.036',-0.395,-0.100
'9:07.039',-0.385,-0.115
'9:07.042',-0.385,-0.125
'9:07.044',-0.370,-0.125
'9:07.047',-0.385,-0.125
'9:07.050',-0.370,-0.145
'9:07.053',-0.370,-0.145
'9:07.056',-0.370,-0.155
'9:07.058',-0.370,-0.150
'9:07.061',-0.360,-0.145
'9:07.064',-0.365,-0.145
'9:07.067',-0.365,-0.140
'9:07.069',-0.360,-0.145
'9:07.072',-0.355,-0.155
'9:07.075',-0.350,-0.175
'9:07.078',-0.345,-0.185
'9:07.081',-0.340,-0.200
'9:07.083',-0.335,-0.200
'9:07.086',-0.355,-0.220
'9:07.089',-0.365,-0.225
'9:07.092',-0.370,-0.215
'9:07.094',-0.375,-0.225
'9:07.097',-0.365,-0.200
'9:07.100',-0.365,-0.210
'9:07.103',-0.365,-0.215
'9:07.106',-0.375,-0.220
'9:07.108',-0.390,-0.225
'9:07.111',-0.390,-0.245
'9:07.114',-0.400,-0.260
'9:07.117',-0.405,-0.265
'9:07.119',-0.420,-0.275
'9:07.122',-0.430,-0.255
'9:07.125',-0.415,-0.260
'9:07.128',-0.430,-0.255
'9:07.131',-0.430,-0.230
'9:07.133',-0.440,-0.245
'9:07.136',-0.420,-0.250
'9:07.139',-0.420,-0.270
'9:07.142',-0.420,-0.265
'9:07.144',-0.425,-0.265
'9:07.147',-0.435,-0.275
'9:07.150',-0.430,-0.270
'9:07.153',-0.435,-0.285
'9:07.156',-0.445,-0.270
'9:07.158',-0.450,-0.265
'9:07.161',-0.465,-0.265
'9:07.164',-0.460,-0.260
'9:07.167',-0.465,-0.245
'9:07.169',-0.480,-0.250
'9:07.172',-0.475,-0.255
'9:07.175',-0.485,-0.245
'9:07.178',-0.480,-0.255
'9:07.181',-0.475,-0.265
'9:07.183',-0.465,-0.275
'9:07.186',-0.465,-0.270
'9:07.189',-0.465,-0.270
'9:07.192',-0.460,-0.255
'9:07.194',-0.455,-0.245
'9:07.197',-0.465,-0.245
'9:07.200',-0.485,-0.240
'9:07.203',-0.480,-0.230
'9:07.206',-0.480,-0.250
'9:07.208',-0.465,-0.245
'9:07.211',-0.455,-0.255
'9:07.214',-0.465,-0.260
'9:07.217',-0.455,-0.265
'9:07.219',-0.475,-0.260
'9:07.222',-0.485,-0.250
'9:07.225',-0.500,-0.255
'9:07.228',-0.495,-0.230
'9:07.231',-0.490,-0.230
'9:07.233',-0.490,-0.220
'9:07.236',-0.485,-0.225
'9:07.239',-0.495,-0.250
'9:07.242',-0.500,-0.230
'9:07.244',-0.510,-0.240
'9:07.247',-0.505,-0.245
'9:07.250',-0.500,-0.240
'9:07.253',-0.485,-0.250
'9:07.256',-0.490,-0.250
'9:07.258',-0.480,-0.240
'9:07.261',-0.465,-0.210
'9:07.264',-0.465,-0.215
'9:07.267',-0.460,-0.205
'9:07.269',-0.450,-0.200
'9:07.272',-0.455,-0.225
'9:07.275',-0.450,-0.225
'9:07.278',-0.455,-0.220
'9:07.281',-0.465,-0.220
'9:07.283',-0.460,-0.240
'9:07.286',-0.455,-0.250
'9:07.289',-0.465,-0.240
'9:07.292',-0.480,-0.240
'9:07.294',-0.465,-0.225
'9:07.297',-0.465,-0.215
'9:07.300',-0.445,-0.195
'9:07.303',-0.440,-0.190
'9:07.306',-0.435,-0.195
'9:07.308',-0.435,-0.205
'9:07.311',-0.430,-0.195
'9:07.314',-0.425,-0.205
'9:07.317',-0.435,-0.200
'9:07.319',-0.430,-0.185
'9:07.322',-0.430,-0.165
'9:07.325',-0.410,-0.155
'9:07.328',-0.385,-0.150
'9:07.331',-0.385,-0.130
'9:07.333',-0.370,-0.155
'9:07.336',-0.360,-0.155
'9:07.339',-0.365,-0.170
'9:07.342',-0.360,-0.180
'9:07.344',-0.350,-0.185
'9:07.347',-0.360,-0.195
'9:07.350',-0.365,-0.220
'9:07.353',-0.365,-0.230
'9:07.356',-0.365,-0.240
'9:07.358',-0.375,-0.265
'9:07.361',-0.375,-0.275
'9:07.364',-0.380,-0.275
'9:07.367',-0.385,-0.270
'9:07.369',-0.380,-0.270
'9:07.372',-0.385,-0.265
'9:07.375',-0.400,-0.275
'9:07.378',-0.430,-0.255
'9:07.381',-0.455,-0.270
'9:07.383',-0.485,-0.265
'9:07.386',-0.500,-0.270
'9:07.389',-0.510,-0.245
'9:07.392',-0.540,-0.250
'9:07.394',-0.550,-0.245
'9:07.397',-0.530,-0.240
'9:07.400',-0.520,-0.230
'9:07.403',-0.505,-0.225
'9:07.406',-0.490,-0.235
'9:07.408',-0.485,-0.235
'9:07.411',-0.495,-0.230
'9:07.414',-0.515,-0.255
'9:07.417',-0.535,-0.255
'9:07.419',-0.560,-0.245
'9:07.422',-0.565,-0.250
'9:07.425',-0.570,-0.240
'9:07.428',-0.570,-0.230
'9:07.431',-0.560,-0.215
'9:07.433',-0.565,-0.230
'9:07.436',-0.560,-0.230
'9:07.439',-0.560,-0.240
'9:07.442',-0.555,-0.255
'9:07.444',-0.540,-0.255
'9:07.447',-0.535,-0.260
'9:07.450',-0.515,-0.260
'9:07.453',-0.500,-0.275
'9:07.456',-0.495,-0.265
'9:07.458',-0.485,-0.255
'9:07.461',-0.495,-0.240
'9:07.464',-0.485,-0.225
'9:07.467',-0.470,-0.235
'9:07.469',-0.450,-0.240
'9:07.472',-0.395,-0.255
'9:07.475',-0.340,-0.255
'9:07.478',-0.290,-0.265
'9:07.481',-0.220,-0.265
'9:07.483',-0.150,-0.285
'9:07.486',-0.075,-0.275
'9:07.489',0.010,-0.285
'9:07.492',0.105,-0.300
'9:07.494',0.180,-0.330
'9:07.497',0.240,-0.370
'9:07.500',0.290,-0.455
'9:07.503',0.315,-0.550
'9:07.506',0.335,-0.655
'9:07.508',0.370,-0.790
'9:07.511',0.390,-0.920
'9:07.514',0.345,-1.045
'9:07.517',0.230,-1.140
'9:07.519',0.060,-1.220
'9:07.522',-0.140,-1.265
'9:07.525',-0.340,-1.290
'9:07.528',-0.515,-1.245
'9:07.531',-0.635,-1.185
'9:07.533',-0.715,-1.100
'9:07.536',-0.760,-0.995
'9:07.539',-0.755,-0.920
'9:07.542',-0.750,-0.840
'9:07.544',-0.745,-0.765
'9:07.547',-0.710,-0.705
'9:07.550',-0.700,-0.655
'9:07.553',-0.685,-0.605
'9:07.556',-0.675,-0.540
'9:07.558',-0.660,-0.490
'9:07.561',-0.650,-0.420
'9:07.564',-0.640,-0.370
'9:07.567',-0.640,-0.310
'9:07.569',-0.645,-0.280
'9:07.572',-0.645,-0.265
'9:07.575',-0.640,-0.245
'9:07.578',-0.635,-0.255
'9:07.581',-0.640,-0.250
'9:07.583',-0.615,-0.250
'9:07.586',-0.620,-0.260
'9:07.589',-0.610,-0.240
'9:07.592',-0.630,-0.230
'9:07.594',-0.630,-0.220
'9:07.597',-0.640,-0.205
'9:07.600',-0.640,-0.215
'9:07.603',-0.645,-0.205
'9:07.606',-0.645,-0.210
'9:07.608',-0.640,-0.220
'9:07.611',-0.630,-0.215
'9:07.614',-0.625,-0.225
'9:07.617',-0.615,-0.230
'9:07.619',-0.615,-0.230
'9:07.622',-0.620,-0.230
'9:07.625',-0.615,-0.220
'9:07.628',-0.625,-0.210
'9:07.631',-0.630,-0.190
'9:07.633',-0.630,-0.190
'9:07.636',-0.630,-0.180
'9:07.639',-0.625,-0.190
'9:07.642',-0.605,-0.195
'9:07.644',-0.595,-0.210
'9:07.647',-0.610,-0.215
'9:07.650',-0.625,-0.225
'9:07.653',-0.640,-0.210
'9:07.656',-0.665,-0.195
'9:07.658',-0.665,-0.195
'9:07.661',-0.670,-0.180
'9:07.664',-0.645,-0.195
'9:07.667',-0.620,-0.180
'9:07.669',-0.595,-0.185
'9:07.672',-0.590,-0.190
'9:07.675',-0.605,-0.195
'9:07.678',-0.615,-0.205
'9:07.681',-0.635,-0.190
'9:07.683',-0.665,-0.195
'9:07.686',-0.680,-0.195
'9:07.689',-0.680,-0.185
'9:07.692',-0.675,-0.190
'9:07.694',-0.660,-0.185
'9:07.697',-0.660,-0.190
'9:07.700',-0.645,-0.175
'9:07.703',-0.650,-0.165
'9:07.706',-0.640,-0.165
'9:07.708',-0.630,-0.170
'9:07.711',-0.630,-0.190
'9:07.714',-0.645,-0.180
'9:07.717',-0.660,-0.180
'9:07.719',-0.660,-0.175
'9:07.722',-0.660,-0.175
'9:07.725',-0.660,-0.165
'9:07.728',-0.640,-0.145
'9:07.731',-0.630,-0.140
'9:07.733',-0.635,-0.125
'9:07.736',-0.625,-0.125
'9:07.739',-0.615,-0.120
'9:07.742',-0.620,-0.130
'9:07.744',-0.620,-0.140
'9:07.747',-0.620,-0.145
'9:07.750',-0.610,-0.145
'9:07.753',-0.630,-0.140
'9:07.756',-0.630,-0.120
'9:07.758',-0.630,-0.125
'9:07.761',-0.605,-0.110
'9:07.764',-0.565,-0.110
'9:07.767',-0.545,-0.100
'9:07.769',-0.520,-0.100
'9:07.772',-0.500,-0.105
'9:07.775',-0.500,-0.090
'9:07.778',-0.505,-0.120
'9:07.781',-0.520,-0.115
'9:07.783',-0.520,-0.125
'9:07.786',-0.525,-0.130
'9:07.789',-0.510,-0.125
'9:07.792',-0.500,-0.130
'9:07.794',-0.485,-0.110
'9:07.797',-0.460,-0.105
'9:07.800',-0.450,-0.110
'9:07.803',-0.430,-0.105
'9:07.806',-0.420,-0.125
'9:07.808',-0.425,-0.140
'9:07.811',-0.430,-0.160
'9:07.814',-0.425,-0.170
'9:07.817',-0.440,-0.185
'9:07.819',-0.440,-0.195
'9:07.822',-0.450,-0.185
'9:07.825',-0.455,-0.190
'9:07.828',-0.445,-0.175
'9:07.831',-0.460,-0.190
'9:07.833',-0.445,-0.180
'9:07.836',-0.440,-0.185
'9:07.839',-0.415,-0.195
'9:07.842',-0.420,-0.195
'9:07.844',-0.415,-0.205
'9:07.847',-0.420,-0.210
'9:07.850',-0.430,-0.225
'9:07.853',-0.450,-0.225
'9:07.856',-0.455,-0.225
'9:07.858',-0.455,-0.215
'9:07.861',-0.465,-0.225
'9:07.864',-0.470,-0.220
'9:07.867',-0.485,-0.225
'9:07.869',-0.490,-0.220
'9:07.872',-0.480,-0.220
'9:07.875',-0.460,-0.225
'9:07.878',-0.435,-0.235
'9:07.881',-0.420,-0.240
'9:07.883',-0.420,-0.250
'9:07.886',-0.430,-0.255
'9:07.889',-0.430,-0.245
'9:07.892',-0.445,-0.245
'9:07.894',-0.445,-0.245
'9:07.897',-0.450,-0.235
'9:07.900',-0.450,-0.225
'9:07.903',-0.450,-0.225
'9:07.906',-0.455,-0.230
'9:07.908',-0.455,-0.245
'9:07.911',-0.460,-0.255
'9:07.914',-0.445,-0.250
'9:07.917',-0.445,-0.250
'9:07.919',-0.435,-0.250
'9:07.922',-0.435,-0.250
'9:07.925',-0.445,-0.240
'9:07.928',-0.445,-0.240
'9:07.931',-0.460,-0.225
'9:07.933',-0.470,-0.230
'9:07.936',-0.470,-0.230
'9:07.939',-0.460,-0.225
'9:07.942',-0.445,-0.230
'9:07.944',-0.410,-0.240
'9:07.947',-0.400,-0.235
'9:07.950',-0.400,-0.260
'9:07.953',-0.420,-0.265
'9:07.956',-0.435,-0.245
'9:07.958',-0.465,-0.225
'9:07.961',-0.480,-0.220
'9:07.964',-0.470,-0.210
'9:07.967',-0.470,-0.215
'9:07.969',-0.470,-0.205
'9:07.972',-0.435,-0.220
'9:07.975',-0.430,-0.225
'9:07.978',-0.410,-0.225
'9:07.981',-0.410,-0.235
'9:07.983',-0.390,-0.240
'9:07.986',-0.395,-0.235
'9:07.989',-0.410,-0.230
'9:07.992',-0.415,-0.220
'9:07.994',-0.400,-0.210
'9:07.997',-0.400,-0.215
'9:08.000',-0.395,-0.215
'9:08.003',-0.395,-0.200
'9:08.006',-0.390,-0.215
'9:08.008',-0.380,-0.210
'9:08.011',-0.370,-0.210
'9:08.014',-0.365,-0.220
'9:08.017',-0.360,-0.195
'9:08.019',-0.355,-0.200
'9:08.022',-0.350,-0.190
'9:08.025',-0.355,-0.185
'9:08.028',-0.355,-0.180
'9:08.031',-0.330,-0.160
'9:08.033',-0.320,-0.150
'9:08.036',-0.305,-0.145
'9:08.039',-0.295,-0.145
'9:08.042',-0.265,-0.165
'9:08.044',-0.260,-0.175
'9:08.047',-0.260,-0.200
'9:08.050',-0.265,-0.220
'9:08.053',-0.265,-0.220
'9:08.056',-0.285,-0.250
'9:08.058',-0.300,-0.260
'9:08.061',-0.305,-0.275
'9:08.064',-0.295,-0.285
'9:08.067',-0.290,-0.285
'9:08.069',-0.285,-0.280
'9:08.072',-0.295,-0.285
'9:08.075',-0.310,-0.295
'9:08.078',-0.325,-0.300
'9:08.081',-0.355,-0.285
'9:08.083',-0.385,-0.290
'9:08.086',-0.415,-0.280
'9:08.089',-0.405,-0.280
'9:08.092',-0.410,-0.270
'9:08.094',-0.405,-0.270
'9:08.097',-0.410,-0.255
'9:08.100',-0.415,-0.255
'9:08.103',-0.405,-0.240
'9:08.106',-0.415,-0.260
'9:08.108',-0.395,-0.260
'9:08.111',-0.410,-0.275
'9:08.114',-0.405,-0.275
'9:08.117',-0.410,-0.280
'9:08.119',-0.420,-0.285
'9:08.122',-0.420,-0.280
'9:08.125',-0.435,-0.275
'9:08.128',-0.430,-0.270
'9:08.131',-0.425,-0.265
'9:08.133',-0.405,-0.265
'9:08.136',-0.395,-0.275
'9:08.139',-0.380,-0.265
'9:08.142',-0.380,-0.275
'9:08.144',-0.385,-0.290
'9:08.147',-0.390,-0.280
'9:08.150',-0.380,-0.275
'9:08.153',-0.350,-0.295
'9:08.156',-0.290,-0.285
'9:08.158',-0.215,-0.290
'9:08.161',-0.130,-0.285
'9:08.164',-0.040,-0.280
'9:08.167',0.040,-0.275
'9:08.169',0.110,-0.275
'9:08.172',0.185,-0.300
'9:08.175',0.250,-0.315
'9:08.178',0.320,-0.350
'9:08.181',0.360,-0.410
'9:08.183',0.395,-0.490
'9:08.186',0.405,-0.595
'9:08.189',0.415,-0.700
'9:08.192',0.440,-0.820
'9:08.194',0.460,-0.915
'9:08.197',0.475,-1.035
'9:08.200',0.435,-1.145
'9:08.203',0.335,-1.245
'9:08.206',0.160,-1.340
'9:08.208',-0.035,-1.375
'9:08.211',-0.235,-1.380
'9:08.214',-0.420,-1.330
'9:08.217',-0.540,-1.240
'9:08.219',-0.600,-1.135
'9:08.222',-0.625,-1.005
'9:08.225',-0.615,-0.895
'9:08.228',-0.580,-0.790
'9:08.231',-0.550,-0.700
'9:08.233',-0.500,-0.645
'9:08.236',-0.480,-0.590
'9:08.239',-0.460,-0.555
'9:08.242',-0.460,-0.500
'9:08.244',-0.465,-0.460
'9:08.247',-0.470,-0.405
'9:08.250',-0.475,-0.360
'9:08.253',-0.480,-0.315
'9:08.256',-0.475,-0.305
'9:08.258',-0.470,-0.285
'9:08.261',-0.460,-0.275
'9:08.264',-0.430,-0.270
'9:08.267',-0.415,-0.255
'9:08.269',-0.390,-0.245
'9:08.272',-0.390,-0.250
'9:08.275',-0.420,-0.250
'9:08.278',-0.425,-0.250
'9:08.281',-0.475,-0.260
'9:08.283',-0.505,-0.255
'9:08.286',-0.510,-0.265
'9:08.289',-0.510,-0.245
'9:08.292',-0.480,-0.240
'9:08.294',-0.455,-0.240
'9:08.297',-0.425,-0.235
'9:08.300',-0.420,-0.225
'9:08.303',-0.405,-0.225
'9:08.306',-0.410,-0.230
'9:08.308',-0.440,-0.240
'9:08.311',-0.435,-0.255
'9:08.314',-0.450,-0.245
'9:08.317',-0.455,-0.250
'9:08.319',-0.445,-0.245
'9:08.322',-0.445,-0.235
'9:08.325',-0.450,-0.230
'9:08.328',-0.455,-0.245
'9:08.331',-0.465,-0.230
'9:08.333',-0.475,-0.225
'9:08.336',-0.465,-0.210
'9:08.339',-0.460,-0.215
'9:08.342',-0.455,-0.225
'9:08.344',-0.440,-0.220
'9:08.347',-0.445,-0.225
'9:08.350',-0.460,-0.240
'9:08.353',-0.485,-0.245
'9:08.356',-0.510,-0.245
'9:08.358',-0.505,-0.230
'9:08.361',-0.495,-0.220
'9:08.364',-0.480,-0.205
'9:08.367',-0.475,-0.210
'9:08.369',-0.490,-0.195
'9:08.372',-0.495,-0.205
'9:08.375',-0.520,-0.210
'9:08.378',-0.520,-0.225
'9:08.381',-0.530,-0.235
'9:08.383',-0.525,-0.250
'9:08.386',-0.535,-0.240
'9:08.389',-0.535,-0.230
'9:08.392',-0.530,-0.220
'9:08.394',-0.515,-0.215
'9:08.397',-0.505,-0.205
'9:08.400',-0.480,-0.190
'9:08.403',-0.455,-0.185
'9:08.406',-0.440,-0.200
'9:08.408',-0.450,-0.200
'9:08.411',-0.470,-0.205
'9:08.414',-0.485,-0.205
'9:08.417',-0.500,-0.200
'9:08.419',-0.505,-0.200
'9:08.422',-0.510,-0.185
'9:08.425',-0.500,-0.190
'9:08.428',-0.480,-0.175
'9:08.431',-0.460,-0.175
'9:08.433',-0.445,-0.160
'9:08.436',-0.430,-0.150
'9:08.439',-0.440,-0.160
'9:08.442',-0.455,-0.150
'9:08.444',-0.450,-0.150
'9:08.447',-0.445,-0.160
'9:08.450',-0.445,-0.165
'9:08.453',-0.445,-0.155
'9:08.456',-0.435,-0.150
'9:08.458',-0.435,-0.150
'9:08.461',-0.415,-0.135
'9:08.464',-0.410,-0.145
'9:08.467',-0.380,-0.135
'9:08.469',-0.350,-0.130
'9:08.472',-0.325,-0.125
'9:08.475',-0.305,-0.140
'9:08.478',-0.300,-0.155
'9:08.481',-0.310,-0.160
'9:08.483',-0.305,-0.175
'9:08.486',-0.305,-0.180
'9:08.489',-0.320,-0.180
'9:08.492',-0.320,-0.190
'9:08.494',-0.320,-0.190
'9:08.497',-0.320,-0.175
'9:08.500',-0.320,-0.180
'9:08.503',-0.310,-0.190
'9:08.506',-0.315,-0.200
'9:08.508',-0.320,-0.210
'9:08.511',-0.330,-0.225
'9:08.514',-0.335,-0.235
'9:08.517',-0.350,-0.255
'9:08.519',-0.355,-0.260
'9:08.522',-0.375,-0.260
'9:08.525',-0.390,-0.255
'9:08.528',-0.390,-0.260
'9:08.531',-0.380,-0.250
'9:08.533',-0.365,-0.235
'9:08.536',-0.340,-0.235
'9:08.539',-0.315,-0.240
'9:08.542',-0.320,-0.255
'9:08.544',-0.310,-0.270
'9:08.547',-0.320,-0.285
'9:08.550',-0.340,-0.295
'9:08.553',-0.360,-0.290
'9:08.556',-0.380,-0.300
'9:08.558',-0.395,-0.295
'9:08.561',-0.410,-0.280
'9:08.564',-0.415,-0.270
'9:08.567',-0.430,-0.265
'9:08.569',-0.400,-0.250
'9:08.572',-0.385,-0.265
'9:08.575',-0.375,-0.275
'9:08.578',-0.370,-0.280
'9:08.581',-0.375,-0.285
'9:08.583',-0.390,-0.295
'9:08.586',-0.400,-0.305
'9:08.589',-0.415,-0.300
'9:08.592',-0.425,-0.295
'9:08.594',-0.410,-0.285
'9:08.597',-0.395,-0.275
'9:08.600',-0.395,-0.275
'9:08.603',-0.380,-0.270
'9:08.606',-0.390,-0.280
'9:08.608',-0.410,-0.285
'9:08.611',-0.420,-0.290
'9:08.614',-0.420,-0.300
'9:08.617',-0.420,-0.295
'9:08.619',-0.410,-0.295
'9:08.622',-0.415,-0.300
'9:08.625',-0.410,-0.285
'9:08.628',-0.410,-0.280
'9:08.631',-0.405,-0.275
'9:08.633',-0.405,-0.260
'9:08.636',-0.385,-0.275
'9:08.639',-0.395,-0.270
'9:08.642',-0.400,-0.280
'9:08.644',-0.415,-0.280
'9:08.647',-0.400,-0.285
'9:08.650',-0.405,-0.295
'9:08.653',-0.430,-0.300
'9:08.656',-0.435,-0.295
'9:08.658',-0.440,-0.295
'9:08.661',-0.430,-0.295
'9:08.664',-0.420,-0.285
'9:08.667',-0.390,-0.275
'9:08.669',-0.385,-0.265
'9:08.672',-0.370,-0.270
'9:08.675',-0.350,-0.275
'9:08.678',-0.335,-0.270
'9:08.681',-0.340,-0.290
'9:08.683',-0.350,-0.305
'9:08.686',-0.350,-0.310
'9:08.689',-0.360,-0.305
'9:08.692',-0.365,-0.295
'9:08.694',-0.370,-0.295
'9:08.697',-0.345,-0.290
'9:08.700',-0.340,-0.275
'9:08.703',-0.335,-0.260
'9:08.706',-0.365,-0.265
'9:08.708',-0.375,-0.250
'9:08.711',-0.390,-0.260
'9:08.714',-0.410,-0.245
'9:08.717',-0.395,-0.245
'9:08.719',-0.370,-0.240
'9:08.722',-0.340,-0.220
'9:08.725',-0.315,-0.210
'9:08.728',-0.285,-0.200
'9:08.731',-0.270,-0.210
'9:08.733',-0.270,-0.205
'9:08.736',-0.250,-0.210
'9:08.739',-0.260,-0.240
'9:08.742',-0.265,-0.260
'9:08.744',-0.280,-0.305
'9:08.747',-0.290,-0.340
'9:08.750',-0.305,-0.350
'9:08.753',-0.310,-0.365
'9:08.756',-0.330,-0.355
'9:08.758',-0.330,-0.345
'9:08.761',-0.330,-0.320
'9:08.764',-0.335,-0.320
'9:08.767',-0.350,-0.300
'9:08.769',-0.375,-0.280
'9:08.772',-0.390,-0.305
'9:08.775',-0.405,-0.305
'9:08.778',-0.420,-0.310
'9:08.781',-0.430,-0.305
'9:08.783',-0.440,-0.320
'9:08.786',-0.460,-0.325
'9:08.789',-0.465,-0.300
'9:08.792',-0.460,-0.290
'9:08.794',-0.450,-0.295
'9:08.797',-0.445,-0.280
'9:08.800',-0.420,-0.285
'9:08.803',-0.415,-0.270
'9:08.806',-0.425,-0.280
'9:08.808',-0.430,-0.290
'9:08.811',-0.450,-0.285
'9:08.814',-0.450,-0.300
'9:08.817',-0.460,-0.310
'9:08.819',-0.455,-0.315
'9:08.822',-0.450,-0.310
'9:08.825',-0.435,-0.320
'9:08.828',-0.420,-0.305
'9:08.831',-0.410,-0.295
'9:08.833',-0.390,-0.300
'9:08.836',-0.380,-0.290
'9:08.839',-0.370,-0.295
'9:08.842',-0.350,-0.295
'9:08.844',-0.330,-0.320
'9:08.847',-0.290,-0.320
'9:08.850',-0.260,-0.335
'9:08.853',-0.210,-0.340
'9:08.856',-0.150,-0.340
'9:08.858',-0.085,-0.325
'9:08.861',-0.005,-0.325
'9:08.864',0.080,-0.340
'9:08.867',0.160,-0.345
'9:08.869',0.270,-0.370
'9:08.872',0.335,-0.395
'9:08.875',0.375,-0.470
'9:08.878',0.380,-0.565
'9:08.881',0.390,-0.685
'9:08.883',0.400,-0.810
'9:08.886',0.430,-0.945
'9:08.889',0.425,-1.075
'9:08.892',0.390,-1.195
'9:08.894',0.265,-1.320
'9:08.897',0.075,-1.420
'9:08.900',-0.155,-1.445
'9:08.903',-0.375,-1.405
'9:08.906',-0.545,-1.340
'9:08.908',-0.640,-1.220
'9:08.911',-0.695,-1.075
'9:08.914',-0.690,-0.935
'9:08.917',-0.655,-0.820
'9:08.919',-0.620,-0.730
'9:08.922',-0.590,-0.625
'9:08.925',-0.545,-0.565
'9:08.928',-0.510,-0.485
'9:08.931',-0.485,-0.415
'9:08.933',-0.460,-0.345
'9:08.936',-0.465,-0.305
'9:08.939',-0.490,-0.290
'9:08.942',-0.515,-0.280
'9:08.944',-0.555,-0.300
'9:08.947',-0.565,-0.305
'9:08.950',-0.570,-0.315
'9:08.953',-0.565,-0.325
'9:08.956',-0.560,-0.315
'9:08.958',-0.555,-0.295
'9:08.961',-0.545,-0.280
'9:08.964',-0.545,-0.265
'9:08.967',-0.560,-0.265
'9:08.969',-0.550,-0.245
'9:08.972',-0.555,-0.250
'9:08.975',-0.560,-0.260
'9:08.978',-0.570,-0.260
'9:08.981',-0.565,-0.255
'9:08.983',-0.560,-0.265
'9:08.986',-0.570,-0.280
'9:08.989',-0.580,-0.255
'9:08.992',-0.575,-0.245
'9:08.994',-0.585,-0.240
'9:08.997',-0.580,-0.225
'9:09.000',-0.575,-0.220
'9:09.003',-0.575,-0.220
'9:09.006',-0.585,-0.225
'9:09.008',-0.590,-0.230
'9:09.011',-0.590,-0.225
'9:09.014',-0.600,-0.220
'9:09.017',-0.600,-0.220
'9:09.019',-0.615,-0.225
'9:09.022',-0.625,-0.210
'9:09.025',-0.615,-0.210
'9:09.028',-0.615,-0.200
'9:09.031',-0.625,-0.195
'9:09.033',-0.615,-0.190
'9:09.036',-0.605,-0.180
'9:09.039',-0.585,-0.180
'9:09.042',-0.580,-0.190
'9:09.044',-0.570,-0.190
'9:09.047',-0.595,-0.195
'9:09.050',-0.605,-0.195
'9:09.053',-0.610,-0.190
'9:09.056',-0.620,-0.190
'9:09.058',-0.625,-0.175
'9:09.061',-0.630,-0.165
'9:09.064',-0.620,-0.165
'9:09.067',-0.620,-0.145
'9:09.069',-0.615,-0.140
'9:09.072',-0.605,-0.150
'9:09.075',-0.635,-0.160
'9:09.078',-0.640,-0.160
'9:09.081',-0.650,-0.160
'9:09.083',-0.665,-0.165
'9:09.086',-0.655,-0.155
'9:09.089',-0.645,-0.145
'9:09.092',-0.640,-0.135
'9:09.094',-0.630,-0.125
'9:09.097',-0.605,-0.105
'9:09.100',-0.605,-0.105
'9:09.103',-0.585,-0.095
'9:09.106',-0.570,-0.095
'9:09.108',-0.570,-0.085
'9:09.111',-0.585,-0.100
'9:09.114',-0.595,-0.095
'9:09.117',-0.610,-0.100
'9:09.119',-0.625,-0.105
'9:09.122',-0.605,-0.105
'9:09.125',-0.595,-0.090
'9:09.128',-0.580,-0.085
'9:09.131',-0.570,-0.070
'9:09.133',-0.535,-0.060
'9:09.136',-0.520,-0.050
'9:09.139',-0.495,-0.070
'9:09.142',-0.495,-0.075
'9:09.144',-0.490,-0.100
'9:09.147',-0.495,-0.105
'9:09.150',-0.485,-0.105
'9:09.153',-0.495,-0.120
'9:09.156',-0.520,-0.105
'9:09.158',-0.515,-0.110
'9:09.161',-0.515,-0.115
'9:09.164',-0.485,-0.110
'9:09.167',-0.470,-0.105
'9:09.169',-0.450,-0.105
'9:09.172',-0.430,-0.120
'9:09.175',-0.445,-0.125
'9:09.178',-0.460,-0.135
'9:09.181',-0.470,-0.140
'9:09.183',-0.505,-0.160
'9:09.186',-0.515,-0.175
'9:09.189',-0.510,-0.165
'9:09.192',-0.520,-0.180
'9:09.194',-0.510,-0.165
'9:09.197',-0.520,-0.160
'9:09.200',-0.520,-0.155
'9:09.203',-0.520,-0.165
'9:09.206',-0.515,-0.170
'9:09.208',-0.500,-0.165
'9:09.211',-0.500,-0.175
'9:09.214',-0.505,-0.180
'9:09.217',-0.505,-0.200
'9:09.219',-0.515,-0.200
'9:09.222',-0.495,-0.195
'9:09.225',-0.515,-0.185
'9:09.228',-0.515,-0.175
'9:09.231',-0.520,-0.175
'9:09.233',-0.525,-0.175
'9:09.236',-0.530,-0.165
'9:09.239',-0.535,-0.170
'9:09.242',-0.545,-0.165
'9:09.244',-0.545,-0.180
'9:09.247',-0.540,-0.190
'9:09.250',-0.535,-0.185
'9:09.253',-0.535,-0.195
'9:09.256',-0.550,-0.185
'9:09.258',-0.555,-0.190
'9:09.261',-0.570,-0.180
'9:09.264',-0.555,-0.165
'9:09.267',-0.540,-0.160
'9:09.269',-0.530,-0.160
'9:09.272',-0.515,-0.160
'9:09.275',-0.525,-0.160
'9:09.278',-0.525,-0.170
'9:09.281',-0.545,-0.165
'9:09.283',-0.570,-0.170
'9:09.286',-0.580,-0.190
'9:09.289',-0.600,-0.185
'9:09.292',-0.615,-0.180
'9:09.294',-0.615,-0.170
'9:09.297',-0.605,-0.165
'9:09.300',-0.575,-0.155
'9:09.303',-0.565,-0.145
'9:09.306',-0.540,-0.145
'9:09.308',-0.515,-0.145
'9:09.311',-0.520,-0.145
'9:09.314',-0.530,-0.150
'9:09.317',-0.555,-0.175
'9:09.319',-0.565,-0.160
'9:09.322',-0.585,-0.150
'9:09.325',-0.580,-0.165
'9:09.328',-0.575,-0.150
'9:09.331',-0.565,-0.145
'9:09.333',-0.555,-0.140
'9:09.336',-0.530,-0.130
'9:09.339',-0.520,-0.135
'9:09.342',-0.505,-0.140
'9:09.344',-0.490,-0.140
'9:09.347',-0.490,-0.145
'9:09.350',-0.485,-0.150
'9:09.353',-0.490,-0.165
'9:09.356',-0.500,-0.155
'9:09.358',-0.495,-0.155
'9:09.361',-0.500,-0.145
'9:09.364',-0.500,-0.120
'9:09.367',-0.485,-0.125
'9:09.369',-0.500,-0.105
'9:09.372',-0.485,-0.110
'9:09.375',-0.465,-0.110
'9:09.378',-0.470,-0.095
'9:09.381',-0.470,-0.100
'9:09.383',-0.475,-0.095
'9:09.386',-0.490,-0.095
'9:09.389',-0.470,-0.090
'9:09.392',-0.475,-0.080
'9:09.394',-0.470,-0.080
'9:09.397',-0.445,-0.065
'9:09.400',-0.430,-0.055
'9:09.403',-0.420,-0.065
'9:09.406',-0.405,-0.065
'9:09.408',-0.395,-0.075
'9:09.411',-0.395,-0.095
'9:09.414',-0.380,-0.115
'9:09.417',-0.405,-0.145
'9:09.419',-0.410,-0.170
'9:09.422',-0.415,-0.185
'9:09.425',-0.415,-0.190
'9:09.428',-0.420,-0.185
'9:09.431',-0.440,-0.185
'9:09.433',-0.460,-0.170
'9:09.436',-0.470,-0.160
'9:09.439',-0.480,-0.165
'9:09.442',-0.495,-0.160
'9:09.444',-0.495,-0.155
'9:09.447',-0.525,-0.165
'9:09.450',-0.545,-0.180
'9:09.453',-0.560,-0.175
'9:09.456',-0.565,-0.170
'9:09.458',-0.565,-0.165
'9:09.461',-0.540,-0.155
'9:09.464',-0.540,-0.140
'9:09.467',-0.540,-0.130
'9:09.469',-0.525,-0.115
'9:09.472',-0.530,-0.130
'9:09.475',-0.545,-0.125
'9:09.478',-0.575,-0.145
'9:09.481',-0.600,-0.145
'9:09.483',-0.605,-0.145
'9:09.486',-0.620,-0.150
'9:09.489',-0.615,-0.155
'9:09.492',-0.615,-0.145
'9:09.494',-0.615,-0.150
'9:09.497',-0.600,-0.145
'9:09.500',-0.600,-0.130
'9:09.503',-0.550,-0.125
'9:09.506',-0.505,-0.135
'9:09.508',-0.490,-0.140
'9:09.511',-0.475,-0.140
'9:09.514',-0.495,-0.155
'9:09.517',-0.495,-0.160
'9:09.519',-0.510,-0.160
'9:09.522',-0.510,-0.155
'9:09.525',-0.475,-0.150
'9:09.528',-0.395,-0.145
'9:09.531',-0.295,-0.140
'9:09.533',-0.205,-0.140
'9:09.536',-0.100,-0.125
'9:09.539',0.000,-0.160
'9:09.542',0.095,-0.145
'9:09.544',0.185,-0.165
'9:09.547',0.225,-0.210
'9:09.550',0.245,-0.280
'9:09.553',0.240,-0.375
'9:09.556',0.240,-0.480
'9:09.558',0.245,-0.605
'9:09.561',0.260,-0.700
'9:09.564',0.265,-0.815
'9:09.567',0.225,-0.925
'9:09.569',0.105,-1.030
'9:09.572',-0.075,-1.110
'9:09.575',-0.275,-1.170
'9:09.578',-0.465,-1.185
'9:09.581',-0.640,-1.150
'9:09.583',-0.755,-1.080
'9:09.586',-0.815,-0.985
'9:09.589',-0.825,-0.875
'9:09.592',-0.795,-0.765
'9:09.594',-0.770,-0.655
'9:09.597',-0.730,-0.560
'9:09.600',-0.700,-0.495
'9:09.603',-0.665,-0.445
'9:09.606',-0.650,-0.405
'9:09.608',-0.650,-0.340
'9:09.611',-0.630,-0.290
'9:09.614',-0.625,-0.235
'9:09.617',-0.630,-0.210
'9:09.619',-0.640,-0.180
'9:09.622',-0.630,-0.145
'9:09.625',-0.625,-0.145
'9:09.628',-0.640,-0.135
'9:09.631',-0.640,-0.135
'9:09.633',-0.635,-0.135
'9:09.636',-0.635,-0.120
'9:09.639',-0.635,-0.105
'9:09.642',-0.630,-0.100
'9:09.644',-0.630,-0.105
'9:09.647',-0.630,-0.095
'9:09.650',-0.640,-0.105
'9:09.653',-0.645,-0.110
'9:09.656',-0.650,-0.105
'9:09.658',-0.645,-0.110
'9:09.661',-0.635,-0.105
'9:09.664',-0.625,-0.100
'9:09.667',-0.620,-0.095
'9:09.669',-0.615,-0.100
'9:09.672',-0.610,-0.095
'9:09.675',-0.630,-0.085
'9:09.678',-0.635,-0.090
'9:09.681',-0.650,-0.095
'9:09.683',-0.660,-0.095
'9:09.686',-0.665,-0.090
'9:09.689',-0.675,-0.085
'9:09.692',-0.660,-0.085
'9:09.694',-0.650,-0.060
'9:09.697',-0.640,-0.060
'9:09.700',-0.630,-0.070
'9:09.703',-0.625,-0.055
'9:09.706',-0.630,-0.060
'9:09.708',-0.645,-0.040
'9:09.711',-0.645,-0.065
'9:09.714',-0.665,-0.070
'9:09.717',-0.665,-0.080
'9:09.719',-0.675,-0.090
'9:09.722',-0.695,-0.075
'9:09.725',-0.695,-0.080
'9:09.728',-0.700,-0.070
'9:09.731',-0.680,-0.055
'9:09.733',-0.685,-0.045
'9:09.736',-0.680,-0.030
'9:09.739',-0.685,-0.035
'9:09.742',-0.695,-0.040
'9:09.744',-0.695,-0.045
'9:09.747',-0.710,-0.045
'9:09.750',-0.705,-0.065
'9:09.753',-0.710,-0.080
'9:09.756',-0.710,-0.075
'9:09.758',-0.720,-0.065
'9:09.761',-0.730,-0.050
'9:09.764',-0.710,-0.030
'9:09.767',-0.690,-0.010
'9:09.769',-0.680,0.005
'9:09.772',-0.670,0.005
'9:09.775',-0.665,0.015
'9:09.778',-0.680,0.010
'9:09.781',-0.660,0.000
'9:09.783',-0.665,-0.005
'9:09.786',-0.665,-0.015
'9:09.789',-0.660,-0.030
'9:09.792',-0.665,-0.015
'9:09.794',-0.685,-0.015
'9:09.797',-0.690,0.005
'9:09.800',-0.695,0.020
'9:09.803',-0.685,0.040
'9:09.806',-0.675,0.045
'9:09.808',-0.665,0.035
'9:09.811',-0.650,0.035
'9:09.814',-0.630,0.005
'9:09.817',-0.615,-0.005
'9:09.819',-0.585,-0.010
'9:09.822',-0.575,-0.005
'9:09.825',-0.560,-0.005
'9:09.828',-0.560,0.010
'9:09.831',-0.555,0.025
'9:09.833',-0.550,0.025
'9:09.836',-0.530,0.035
'9:09.839',-0.515,0.030
'9:09.842',-0.525,0.030
'9:09.844',-0.525,-0.010
'9:09.847',-0.550,-0.010
'9:09.850',-0.565,-0.030
'9:09.853',-0.585,-0.050
'9:09.856',-0.615,-0.050
'9:09.858',-0.605,-0.060
'9:09.861',-0.585,-0.045
'9:09.864',-0.580,-0.030
'9:09.867',-0.555,-0.025
'9:09.869',-0.545,-0.020
'9:09.872',-0.530,-0.020
'9:09.875',-0.540,-0.035
'9:09.878',-0.550,-0.040
'9:09.881',-0.565,-0.050
'9:09.883',-0.565,-0.065
'9:09.886',-0.585,-0.070
'9:09.889',-0.595,-0.080
'9:09.892',-0.590,-0.090
'9:09.894',-0.580,-0.085
'9:09.897',-0.590,-0.080
'9:09.900',-0.600,-0.075
'9:09.903',-0.615,-0.065
'9:09.906',-0.610,-0.050
'9:09.908',-0.615,-0.055
'9:09.911',-0.610,-0.055
'9:09.914',-0.605,-0.060
'9:09.917',-0.625,-0.070
'9:09.919',-0.635,-0.075
'9:09.922',-0.655,-0.085
'9:09.925',-0.665,-0.080
'9:09.928',-0.655,-0.075
'9:09.931',-0.635,-0.075
'9:09.933',-0.600,-0.055
'9:09.936',-0.565,-0.055
'9:09.939',-0.550,-0.065
'9:09.942',-0.555,-0.065
'9:09.944',-0.570,-0.075
'9:09.947',-0.580,-0.090
'9:09.950',-0.595,-0.080
'9:09.953',-0.600,-0.095
'9:09.956',-0.595,-0.075
'9:09.958',-0.600,-0.080
'9:09.961',-0.580,-0.065
'9:09.964',-0.570,-0.060
'9:09.967',-0.575,-0.050
'9:09.969',-0.575,-0.055
'9:09.972',-0.585,-0.050
'9:09.975',-0.585,-0.055
'9:09.978',-0.595,-0.060
'9:09.981',-0.605,-0.060
'9:09.983',-0.595,-0.075
'9:09.986',-0.580,-0.070
'9:09.989',-0.565,-0.090
'9:09.992',-0.555,-0.075
'9:09.994',-0.555,-0.075
'9:09.997',-0.550,-0.060
'9:10.000',-0.530,-0.045
'9:10.003',-0.540,-0.040
'9:10.006',-0.535,-0.050
'9:10.008',-0.575,-0.045
'9:10.011',-0.595,-0.060
'9:10.014',-0.590,-0.065
'9:10.017',-0.595,-0.060
'9:10.019',-0.590,-0.055
'9:10.022',-0.590,-0.060
'9:10.025',-0.615,-0.040
'9:10.028',-0.615,-0.025
'9:10.031',-0.620,0.000
'9:10.033',-0.620,0.030
'9:10.036',-0.605,0.045
'9:10.039',-0.590,0.060
'9:10.042',-0.570,0.060
'9:10.044',-0.570,0.050
'9:10.047',-0.560,0.025
'9:10.050',-0.545,-0.005
'9:10.053',-0.535,-0.030
'9:10.056',-0.530,-0.055
'9:10.058',-0.515,-0.070
'9:10.061',-0.510,-0.065
'9:10.064',-0.500,-0.055
'9:10.067',-0.500,-0.025
'9:10.069',-0.505,0.000
'9:10.072',-0.505,0.025
'9:10.075',-0.500,0.025
'9:10.078',-0.505,0.040
'9:10.081',-0.505,0.035
'9:10.083',-0.510,0.025
'9:10.086',-0.505,0.025
'9:10.089',-0.500,0.020
'9:10.092',-0.485,0.000
'9:10.094',-0.470,0.005
'9:10.097',-0.440,0.000
'9:10.100',-0.425,-0.025
'9:10.103',-0.410,-0.040
'9:10.106',-0.410,-0.065
'9:10.108',-0.430,-0.100
'9:10.111',-0.450,-0.120
'9:10.114',-0.470,-0.125
'9:10.117',-0.490,-0.135
'9:10.119',-0.510,-0.120
'9:10.122',-0.525,-0.115
'9:10.125',-0.540,-0.095
'9:10.128',-0.535,-0.080
'9:10.131',-0.545,-0.070
'9:10.133',-0.565,-0.065
'9:10.136',-0.555,-0.060
'9:10.139',-0.560,-0.070
'9:10.142',-0.565,-0.090
'9:10.144',-0.575,-0.080
'9:10.147',-0.575,-0.075
'9:10.150',-0.580,-0.070
'9:10.153',-0.605,-0.065
'9:10.156',-0.600,-0.065
'9:10.158',-0.615,-0.065
'9:10.161',-0.605,-0.065
'9:10.164',-0.605,-0.045
'9:10.167',-0.610,-0.050
'9:10.169',-0.615,-0.040
'9:10.172',-0.590,-0.045
'9:10.175',-0.605,-0.045
'9:10.178',-0.610,-0.050
'9:10.181',-0.635,-0.070
'9:10.183',-0.630,-0.080
'9:10.186',-0.625,-0.085
'9:10.189',-0.610,-0.090
'9:10.192',-0.580,-0.090
'9:10.194',-0.550,-0.075
'9:10.197',-0.515,-0.090
'9:10.200',-0.500,-0.080
'9:10.203',-0.510,-0.080
'9:10.206',-0.495,-0.080
'9:10.208',-0.480,-0.065
'9:10.211',-0.435,-0.080
'9:10.214',-0.395,-0.070
'9:10.217',-0.320,-0.080
'9:10.219',-0.240,-0.075
'9:10.222',-0.140,-0.090
'9:10.225',-0.045,-0.085
'9:10.228',0.045,-0.090
'9:10.231',0.135,-0.105
'9:10.233',0.205,-0.130
'9:10.236',0.260,-0.150
'9:10.239',0.275,-0.225
'9:10.242',0.285,-0.330
'9:10.244',0.295,-0.445
'9:10.247',0.310,-0.560
'9:10.250',0.315,-0.690
'9:10.253',0.285,-0.800
'9:10.256',0.200,-0.915
'9:10.258',0.070,-1.015
'9:10.261',-0.105,-1.085
'9:10.264',-0.295,-1.130
'9:10.267',-0.475,-1.140
'9:10.269',-0.600,-1.115
'9:10.272',-0.700,-1.045
'9:10.275',-0.755,-0.965
'9:10.278',-0.765,-0.875
'9:10.281',-0.775,-0.785
'9:10.283',-0.755,-0.700
'9:10.286',-0.745,-0.630
'9:10.289',-0.730,-0.555
'9:10.292',-0.715,-0.480
'9:10.294',-0.685,-0.415
'9:10.297',-0.660,-0.345
'9:10.300',-0.645,-0.275
'9:10.303',-0.640,-0.195
'9:10.306',-0.615,-0.155
'9:10.308',-0.610,-0.125
'9:10.311',-0.615,-0.105
'9:10.314',-0.615,-0.100
'9:10.317',-0.610,-0.110
'9:10.319',-0.620,-0.120
'9:10.322',-0.640,-0.110
'9:10.325',-0.655,-0.125
'9:10.328',-0.650,-0.115
'9:10.331',-0.640,-0.110
'9:10.333',-0.650,-0.120
'9:10.336',-0.645,-0.120
'9:10.339',-0.625,-0.115
'9:10.342',-0.610,-0.120
'9:10.344',-0.585,-0.125
'9:10.347',-0.590,-0.130
'9:10.350',-0.595,-0.130
'9:10.353',-0.615,-0.140
'9:10.356',-0.635,-0.145
'9:10.358',-0.640,-0.140
'9:10.361',-0.650,-0.145
'9:10.364',-0.645,-0.140
'9:10.367',-0.625,-0.135
'9:10.369',-0.635,-0.125
'9:10.372',-0.630,-0.135
'9:10.375',-0.625,-0.135
'9:10.378',-0.630,-0.130
'9:10.381',-0.640,-0.145
'9:10.383',-0.660,-0.160
'9:10.386',-0.660,-0.170
'9:10.389',-0.655,-0.160
'9:10.392',-0.660,-0.150
'9:10.394',-0.660,-0.160
'9:10.397',-0.655,-0.150
'9:10.400',-0.640,-0.150
'9:10.403',-0.645,-0.135
'9:10.406',-0.650,-0.125
'9:10.408',-0.665,-0.125
'9:10.411',-0.680,-0.140
'9:10.414',-0.680,-0.145
'9:10.417',-0.675,-0.160
'9:10.419',-0.685,-0.160
'9:10.422',-0.690,-0.155
'9:10.425',-0.705,-0.140
'9:10.428',-0.690,-0.140
'9:10.431',-0.700,-0.130
'9:10.433',-0.690,-0.130
'9:10.436',-0.690,-0.100
'9:10.439',-0.690,-0.105
'9:10.442',-0.695,-0.105
'9:10.444',-0.705,-0.105
'9:10.447',-0.695,-0.100
'9:10.450',-0.705,-0.120
'9:10.453',-0.710,-0.120
'9:10.456',-0.720,-0.110
'9:10.458',-0.715,-0.095
'9:10.461',-0.705,-0.085
'9:10.464',-0.705,-0.080
'9:10.467',-0.695,-0.060
'9:10.469',-0.685,-0.055
'9:10.472',-0.680,-0.050
'9:10.475',-0.675,-0.055
'9:10.478',-0.675,-0.055
'9:10.481',-0.670,-0.055
'9:10.483',-0.670,-0.060
'9:10.486',-0.660,-0.065
'9:10.489',-0.660,-0.075
'9:10.492',-0.640,-0.060
'9:10.494',-0.635,-0.065
'9:10.497',-0.620,-0.050
'9:10.500',-0.605,-0.035
'9:10.503',-0.580,-0.035
'9:10.506',-0.575,-0.020
'9:10.508',-0.580,-0.030
'9:10.511',-0.575,-0.035
'9:10.514',-0.585,-0.055
'9:10.517',-0.580,-0.065
'9:10.519',-0.570,-0.075
'9:10.522',-0.565,-0.095
'9:10.525',-0.580,-0.090
'9:10.528',-0.580,-0.095
'9:10.531',-0.570,-0.090
'9:10.533',-0.565,-0.090
'9:10.536',-0.550,-0.080
'9:10.539',-0.555,-0.080
'9:10.542',-0.570,-0.075
'9:10.544',-0.575,-0.090
'9:10.547',-0.575,-0.115
'9:10.550',-0.585,-0.125
'9:10.553',-0.590,-0.130
'9:10.556',-0.590,-0.140
'9:10.558',-0.600,-0.140
'9:10.561',-0.610,-0.140
'9:10.564',-0.595,-0.140
'9:10.567',-0.600,-0.135
'9:10.569',-0.585,-0.120
'9:10.572',-0.590,-0.120
'9:10.575',-0.585,-0.130
'9:10.578',-0.580,-0.145
'9:10.581',-0.585,-0.150
'9:10.583',-0.595,-0.150
'9:10.586',-0.605,-0.155
'9:10.589',-0.610,-0.150
'9:10.592',-0.605,-0.145
'9:10.594',-0.610,-0.145
'9:10.597',-0.610,-0.125
'9:10.600',-0.600,-0.125
'9:10.603',-0.605,-0.120
'9:10.606',-0.600,-0.125
'9:10.608',-0.605,-0.120
'9:10.611',-0.610,-0.135
'9:10.614',-0.625,-0.130
'9:10.617',-0.635,-0.140
'9:10.619',-0.645,-0.120
'9:10.622',-0.645,-0.150
'9:10.625',-0.635,-0.130
'9:10.628',-0.625,-0.125
'9:10.631',-0.625,-0.125
'9:10.633',-0.625,-0.110
'9:10.636',-0.615,-0.120
'9:10.639',-0.615,-0.125
'9:10.642',-0.605,-0.130
'9:10.644',-0.605,-0.135
'9:10.647',-0.630,-0.145
'9:10.650',-0.625,-0.140
'9:10.653',-0.635,-0.145
'9:10.656',-0.650,-0.140
'9:10.658',-0.655,-0.130
'9:10.661',-0.655,-0.125
'9:10.664',-0.640,-0.120
'9:10.667',-0.615,-0.105
'9:10.669',-0.580,-0.100
'9:10.672',-0.570,-0.110
'9:10.675',-0.570,-0.115
'9:10.678',-0.585,-0.115
'9:10.681',-0.590,-0.120
'9:10.683',-0.600,-0.135
'9:10.686',-0.615,-0.130
'9:10.689',-0.615,-0.135
'9:10.692',-0.620,-0.135
'9:10.694',-0.615,-0.135
'9:10.697',-0.610,-0.105
'9:10.700',-0.610,-0.110
'9:10.703',-0.595,-0.095
'9:10.706',-0.595,-0.095
'9:10.708',-0.600,-0.095
'9:10.711',-0.580,-0.100
'9:10.714',-0.575,-0.105
'9:10.717',-0.570,-0.110
'9:10.719',-0.585,-0.105
'9:10.722',-0.590,-0.100
'9:10.725',-0.590,-0.090
'9:10.728',-0.590,-0.080
'9:10.731',-0.575,-0.070
'9:10.733',-0.580,-0.075
'9:10.736',-0.560,-0.055
'9:10.739',-0.555,-0.050
'9:10.742',-0.540,-0.045
'9:10.744',-0.530,-0.045
'9:10.747',-0.535,-0.050
'9:10.750',-0.520,-0.050
'9:10.753',-0.515,-0.065
'9:10.756',-0.515,-0.050
'9:10.758',-0.510,-0.055
'9:10.761',-0.495,-0.065
'9:10.764',-0.495,-0.075
'9:10.767',-0.490,-0.100
'9:10.769',-0.500,-0.115
'9:10.772',-0.510,-0.140
'9:10.775',-0.505,-0.160
'9:10.778',-0.530,-0.170
'9:10.781',-0.550,-0.180
'9:10.783',-0.565,-0.185
'9:10.786',-0.595,-0.185
'9:10.789',-0.595,-0.175
'9:10.792',-0.610,-0.160
'9:10.794',-0.610,-0.135
'9:10.797',-0.635,-0.135
'9:10.800',-0.625,-0.120
'9:10.803',-0.635,-0.115
'9:10.806',-0.640,-0.115
'9:10.808',-0.650,-0.125
'9:10.811',-0.670,-0.115
'9:10.814',-0.685,-0.125
'9:10.817',-0.685,-0.130
'9:10.819',-0.695,-0.130
'9:10.822',-0.700,-0.120
'9:10.825',-0.685,-0.120
'9:10.828',-0.695,-0.120
'9:10.831',-0.705,-0.105
'9:10.833',-0.690,-0.100
'9:10.836',-0.685,-0.100
'9:10.839',-0.675,-0.100
'9:10.842',-0.675,-0.120
'9:10.844',-0.660,-0.110
'9:10.847',-0.645,-0.125
'9:10.850',-0.650,-0.125
'9:10.853',-0.645,-0.130
'9:10.856',-0.650,-0.140
'9:10.858',-0.655,-0.135
'9:10.861',-0.650,-0.135
'9:10.864',-0.645,-0.130
'9:10.867',-0.630,-0.135
'9:10.869',-0.620,-0.120
'9:10.872',-0.600,-0.110
'9:10.875',-0.570,-0.130
'9:10.878',-0.545,-0.135
'9:10.881',-0.490,-0.135
'9:10.883',-0.435,-0.145
'9:10.886',-0.365,-0.150
'9:10.889',-0.310,-0.150
'9:10.892',-0.230,-0.145
'9:10.894',-0.165,-0.145
'9:10.897',-0.095,-0.145
'9:10.900',0.005,-0.150
'9:10.903',0.080,-0.170
'9:10.906',0.155,-0.205
'9:10.908',0.190,-0.285
'9:10.911',0.205,-0.375
'9:10.914',0.205,-0.495
'9:10.917',0.230,-0.610
'9:10.919',0.255,-0.735
'9:10.922',0.260,-0.850
'9:10.925',0.220,-0.955
'9:10.928',0.110,-1.065
'9:10.931',-0.050,-1.135
'9:10.933',-0.255,-1.190
'9:10.936',-0.460,-1.210
'9:10.939',-0.630,-1.185
'9:10.942',-0.775,-1.140
'9:10.944',-0.850,-1.050
'9:10.947',-0.890,-0.965
'9:10.950',-0.895,-0.865
'9:10.953',-0.870,-0.775
'9:10.956',-0.845,-0.680
'9:10.958',-0.820,-0.605
'9:10.961',-0.805,-0.530
'9:10.964',-0.790,-0.465
'9:10.967',-0.760,-0.405
'9:10.969',-0.735,-0.335
'9:10.972',-0.715,-0.270
'9:10.975',-0.715,-0.210
'9:10.978',-0.715,-0.175
'9:10.981',-0.725,-0.150
'9:10.983',-0.740,-0.155
'9:10.986',-0.740,-0.160
'9:10.989',-0.745,-0.150
'9:10.992',-0.755,-0.145
'9:10.994',-0.750,-0.135
'9:10.997',-0.750,-0.115
'9:11.000',-0.740,-0.110
'9:11.003',-0.735,-0.090
'9:11.006',-0.730,-0.080
'9:11.008',-0.720,-0.090
'9:11.011',-0.710,-0.075
'9:11.014',-0.720,-0.085
'9:11.017',-0.720,-0.095
'9:11.019',-0.720,-0.100
'9:11.022',-0.725,-0.095
'9:11.025',-0.730,-0.095
'9:11.028',-0.735,-0.090
'9:11.031',-0.730,-0.080
'9:11.033',-0.725,-0.075
'9:11.036',-0.710,-0.070
'9:11.039',-0.710,-0.070
'9:11.042',-0.705,-0.080
'9:11.044',-0.700,-0.075
'9:11.047',-0.700,-0.065
'9:11.050',-0.710,-0.065
'9:11.053',-0.720,-0.065
'9:11.056',-0.735,-0.065
'9:11.058',-0.730,-0.070
'9:11.061',-0.730,-0.060
'9:11.064',-0.730,-0.070
'9:11.067',-0.710,-0.055
'9:11.069',-0.690,-0.050
'9:11.072',-0.685,-0.050
'9:11.075',-0.690,-0.050
'9:11.078',-0.705,-0.055
'9:11.081',-0.710,-0.060
'9:11.083',-0.725,-0.065
'9:11.086',-0.740,-0.075
'9:11.089',-0.750,-0.070
'9:11.092',-0.745,-0.040
'9:11.094',-0.750,-0.050
'9:11.097',-0.740,-0.035
'9:11.100',-0.725,-0.040
'9:11.103',-0.730,-0.030
'9:11.106',-0.720,-0.020
'9:11.108',-0.725,-0.030
'9:11.111',-0.740,-0.015
'9:11.114',-0.735,-0.015
'9:11.117',-0.730,-0.015
'9:11.119',-0.740,-0.020
'9:11.122',-0.760,-0.015
'9:11.125',-0.735,-0.010
'9:11.128',-0.730,-0.010
'9:11.131',-0.720,0.000
'9:11.133',-0.705,0.010
'9:11.136',-0.695,0.010
'9:11.139',-0.685,0.025
'9:11.142',-0.690,0.015
'9:11.144',-0.685,0.015
'9:11.147',-0.690,0.010
'9:11.150',-0.685,0.025
'9:11.153',-0.675,0.020
'9:11.156',-0.695,0.040
'9:11.158',-0.680,0.035
'9:11.161',-0.660,0.040
'9:11.164',-0.645,0.050
'9:11.167',-0.630,0.060
'9:11.169',-0.615,0.075
'9:11.172',-0.610,0.065
'9:11.175',-0.595,0.070
'9:11.178',-0.585,0.060
'9:11.181',-0.570,0.045
'9:11.183',-0.570,0.045
'9:11.186',-0.540,0.035
'9:11.189',-0.545,0.030
'9:11.192',-0.530,0.030
'9:11.194',-0.525,0.040
'9:11.197',-0.515,0.030
'9:11.200',-0.505,0.045
'9:11.203',-0.485,0.035
'9:11.206',-0.475,0.040
'9:11.208',-0.465,0.030
'9:11.211',-0.465,0.030
'9:11.214',-0.475,0.015
'9:11.217',-0.475,0.000
'9:11.219',-0.480,-0.010
'9:11.222',-0.485,-0.020
'9:11.225',-0.480,-0.020
'9:11.228',-0.470,-0.035
'9:11.231',-0.460,-0.040
'9:11.233',-0.455,-0.040
'9:11.236',-0.455,-0.035
'9:11.239',-0.460,-0.045
'9:11.242',-0.460,-0.060
'9:11.244',-0.460,-0.065
'9:11.247',-0.470,-0.080
'9:11.250',-0.470,-0.080
'9:11.253',-0.480,-0.075
'9:11.256',-0.470,-0.090
'9:11.258',-0.465,-0.085
'9:11.261',-0.465,-0.090
'9:11.264',-0.480,-0.085
'9:11.267',-0.485,-0.090
'9:11.269',-0.505,-0.100
'9:11.272',-0.505,-0.095
'9:11.275',-0.520,-0.095
'9:11.278',-0.520,-0.110
'9:11.281',-0.520,-0.115
'9:11.283',-0.505,-0.125
'9:11.286',-0.520,-0.135
'9:11.289',-0.525,-0.145
'9:11.292',-0.520,-0.145
'9:11.294',-0.525,-0.140
'9:11.297',-0.505,-0.145
'9:11.300',-0.510,-0.140
'9:11.303',-0.505,-0.130
'9:11.306',-0.495,-0.125
'9:11.308',-0.495,-0.135
'9:11.311',-0.495,-0.130
'9:11.314',-0.500,-0.140
'9:11.317',-0.505,-0.150
'9:11.319',-0.520,-0.160
'9:11.322',-0.525,-0.165
'9:11.325',-0.525,-0.165
'9:11.328',-0.535,-0.165
'9:11.331',-0.515,-0.155
'9:11.333',-0.510,-0.150
'9:11.336',-0.500,-0.160
'9:11.339',-0.500,-0.145
'9:11.342',-0.485,-0.160
'9:11.344',-0.495,-0.160
'9:11.347',-0.495,-0.160
'9:11.350',-0.515,-0.155
'9:11.353',-0.520,-0.165
'9:11.356',-0.525,-0.175
'9:11.358',-0.540,-0.180
'9:11.361',-0.520,-0.170
'9:11.364',-0.510,-0.155
'9:11.367',-0.505,-0.160
'9:11.369',-0.500,-0.145
'9:11.372',-0.485,-0.145
'9:11.375',-0.485,-0.135
'9:11.378',-0.485,-0.135
'9:11.381',-0.485,-0.165
'9:11.383',-0.495,-0.160
'9:11.386',-0.485,-0.165
'9:11.389',-0.500,-0.165
'9:11.392',-0.485,-0.150
'9:11.394',-0.480,-0.155
'9:11.397',-0.460,-0.145
'9:11.400',-0.450,-0.145
'9:11.403',-0.460,-0.130
'9:11.406',-0.435,-0.115
'9:11.408',-0.435,-0.125
'9:11.411',-0.435,-0.110
'9:11.414',-0.440,-0.115
'9:11.417',-0.445,-0.125
'9:11.419',-0.440,-0.115
'9:11.422',-0.450,-0.105
'9:11.425',-0.430,-0.100
'9:11.428',-0.405,-0.105
'9:11.431',-0.400,-0.090
'9:11.433',-0.400,-0.095
'9:11.436',-0.415,-0.080
'9:11.439',-0.415,-0.070
'9:11.442',-0.410,-0.080
'9:11.444',-0.410,-0.090
'9:11.447',-0.385,-0.105
'9:11.450',-0.380,-0.130
'9:11.453',-0.360,-0.140
'9:11.456',-0.360,-0.160
'9:11.458',-0.345,-0.175
'9:11.461',-0.355,-0.200
'9:11.464',-0.360,-0.200
'9:11.467',-0.370,-0.195
'9:11.469',-0.400,-0.205
'9:11.472',-0.420,-0.185
'9:11.475',-0.430,-0.185
'9:11.478',-0.450,-0.185
'9:11.481',-0.455,-0.180
'9:11.483',-0.460,-0.190
'9:11.486',-0.455,-0.180
'9:11.489',-0.455,-0.190
'9:11.492',-0.455,-0.165
'9:11.494',-0.455,-0.160
'9:11.497',-0.465,-0.160
'9:11.500',-0.465,-0.155
'9:11.503',-0.485,-0.140
'9:11.506',-0.480,-0.145
'9:11.508',-0.490,-0.150
'9:11.511',-0.505,-0.160
'9:11.514',-0.500,-0.170
'9:11.517',-0.510,-0.185
'9:11.519',-0.505,-0.190
'9:11.522',-0.500,-0.190
'9:11.525',-0.495,-0.185
'9:11.528',-0.495,-0.190
'9:11.531',-0.490,-0.170
'9:11.533',-0.480,-0.165
'9:11.536',-0.480,-0.160
'9:11.539',-0.475,-0.155
'9:11.542',-0.470,-0.165
'9:11.544',-0.475,-0.175
'9:11.547',-0.470,-0.165
'9:11.550',-0.490,-0.200
'9:11.553',-0.490,-0.205
'9:11.556',-0.475,-0.220
'9:11.558',-0.480,-0.210
'9:11.561',-0.460,-0.210
'9:11.564',-0.425,-0.190
'9:11.567',-0.395,-0.195
'9:11.569',-0.330,-0.190
'9:11.572',-0.285,-0.180
'9:11.575',-0.225,-0.190
'9:11.578',-0.165,-0.195
'9:11.581',-0.115,-0.205
'9:11.583',-0.055,-0.225
'9:11.586',0.015,-0.225
'9:11.589',0.105,-0.235
'9:11.592',0.180,-0.230
'9:11.594',0.250,-0.245
'9:11.597',0.290,-0.295
'9:11.600',0.295,-0.350
'9:11.603',0.305,-0.440
'9:11.606',0.310,-0.530
'9:11.608',0.350,-0.625
'9:11.611',0.390,-0.735
'9:11.614',0.425,-0.835
'9:11.617',0.405,-0.935
'9:11.619',0.320,-1.035
'9:11.622',0.160,-1.130
'9:11.625',-0.035,-1.180
'9:11.628',-0.235,-1.205
'9:11.631',-0.410,-1.190
'9:11.633',-0.560,-1.160
'9:11.636',-0.655,-1.090
'9:11.639',-0.700,-1.005
'9:11.642',-0.695,-0.915
'9:11.644',-0.665,-0.820
'9:11.647',-0.640,-0.760
'9:11.650',-0.610,-0.660
'9:11.653',-0.590,-0.615
'9:11.656',-0.595,-0.565
'9:11.658',-0.570,-0.495
'9:11.661',-0.545,-0.460
'9:11.664',-0.525,-0.385
'9:11.667',-0.495,-0.335
'9:11.669',-0.475,-0.280
'9:11.672',-0.470,-0.235
'9:11.675',-0.470,-0.215
'9:11.678',-0.500,-0.220
'9:11.681',-0.535,-0.210
'9:11.683',-0.555,-0.225
'9:11.686',-0.565,-0.215
'9:11.689',-0.575,-0.220
'9:11.692',-0.570,-0.180
'9:11.694',-0.560,-0.190
'9:11.697',-0.550,-0.175
'9:11.700',-0.525,-0.160
'9:11.703',-0.515,-0.160
'9:11.706',-0.490,-0.155
'9:11.708',-0.490,-0.165
'9:11.711',-0.485,-0.150
'9:11.714',-0.495,-0.170
'9:11.717',-0.490,-0.180
'9:11.719',-0.510,-0.170
'9:11.722',-0.520,-0.180
'9:11.725',-0.525,-0.170
'9:11.728',-0.525,-0.180
'9:11.731',-0.530,-0.160
'9:11.733',-0.515,-0.170
'9:11.736',-0.515,-0.165
'9:11.739',-0.505,-0.150
'9:11.742',-0.500,-0.175
'9:11.744',-0.500,-0.170
'9:11.747',-0.505,-0.190
'9:11.750',-0.500,-0.195
'9:11.753',-0.495,-0.200
'9:11.756',-0.510,-0.195
'9:11.758',-0.515,-0.190
'9:11.761',-0.525,-0.190
'9:11.764',-0.515,-0.190
'9:11.767',-0.520,-0.175
'9:11.769',-0.510,-0.170
'9:11.772',-0.500,-0.155
'9:11.775',-0.490,-0.160
'9:11.778',-0.500,-0.170
'9:11.781',-0.505,-0.180
'9:11.783',-0.510,-0.190
'9:11.786',-0.510,-0.175
'9:11.789',-0.515,-0.175
'9:11.792',-0.535,-0.180
'9:11.794',-0.520,-0.160
'9:11.797',-0.515,-0.155
'9:11.800',-0.530,-0.160
'9:11.803',-0.515,-0.155
'9:11.806',-0.515,-0.165
'9:11.808',-0.505,-0.155
'9:11.811',-0.495,-0.155
'9:11.814',-0.495,-0.155
'9:11.817',-0.490,-0.160
'9:11.819',-0.485,-0.160
'9:11.822',-0.485,-0.175
'9:11.825',-0.470,-0.165
'9:11.828',-0.475,-0.160
'9:11.831',-0.480,-0.165
'9:11.833',-0.505,-0.140
'9:11.836',-0.525,-0.125
'9:11.839',-0.545,-0.120
'9:11.842',-0.550,-0.105
'9:11.844',-0.540,-0.100
'9:11.847',-0.520,-0.105
'9:11.850',-0.505,-0.100
'9:11.853',-0.485,-0.105
'9:11.856',-0.470,-0.115
'9:11.858',-0.460,-0.110
'9:11.861',-0.450,-0.105
'9:11.864',-0.435,-0.090
'9:11.867',-0.425,-0.085
'9:11.869',-0.410,-0.080
'9:11.872',-0.400,-0.090
'9:11.875',-0.385,-0.090
'9:11.878',-0.375,-0.105
'9:11.881',-0.360,-0.095
'9:11.883',-0.370,-0.110
'9:11.886',-0.360,-0.120
'9:11.889',-0.350,-0.115
'9:11.892',-0.355,-0.110
'9:11.894',-0.345,-0.110
'9:11.897',-0.345,-0.100
'9:11.900',-0.320,-0.115
'9:11.903',-0.325,-0.115
'9:11.906',-0.315,-0.110
'9:11.908',-0.310,-0.140
'9:11.911',-0.315,-0.130
'9:11.914',-0.330,-0.150
'9:11.917',-0.330,-0.170
'9:11.919',-0.325,-0.170
'9:11.922',-0.340,-0.185
'9:11.925',-0.340,-0.175
'9:11.928',-0.355,-0.185
'9:11.931',-0.340,-0.185
'9:11.933',-0.330,-0.190
'9:11.936',-0.345,-0.190
'9:11.939',-0.330,-0.190
'9:11.942',-0.340,-0.205
'9:11.944',-0.345,-0.205
'9:11.947',-0.355,-0.215
'9:11.950',-0.365,-0.225
'9:11.953',-0.370,-0.225
'9:11.956',-0.375,-0.240
'9:11.958',-0.395,-0.240
'9:11.961',-0.410,-0.235
'9:11.964',-0.405,-0.235
'9:11.967',-0.400,-0.230
'9:11.969',-0.395,-0.210
'9:11.972',-0.370,-0.215
'9:11.975',-0.360,-0.225
'9:11.978',-0.360,-0.225
'9:11.981',-0.370,-0.240
'9:11.983',-0.385,-0.240
'9:11.986',-0.400,-0.265
'9:11.989',-0.405,-0.255
'9:11.992',-0.415,-0.250
'9:11.994',-0.425,-0.260
'9:11.997',-0.405,-0.260
'9:12.000',-0.410,-0.240
'9:12.003',-0.410,-0.240
'9:12.006',-0.400,-0.245
'9:12.008',-0.400,-0.255
'9:12.011',-0.415,-0.240
'9:12.014',-0.410,-0.255
'9:12.017',-0.405,-0.265
'9:12.019',-0.400,-0.270
'9:12.022',-0.400,-0.275
'9:12.025',-0.410,-0.260
'9:12.028',-0.410,-0.255
'9:12.031',-0.410,-0.245
'9:12.033',-0.405,-0.245
'9:12.036',-0.400,-0.235
'9:12.039',-0.395,-0.240
'9:12.042',-0.380,-0.245
'9:12.044',-0.390,-0.250
'9:12.047',-0.390,-0.265
'9:12.050',-0.405,-0.275
'9:12.053',-0.415,-0.270
'9:12.056',-0.435,-0.270
'9:12.058',-0.430,-0.260
'9:12.061',-0.420,-0.250
'9:12.064',-0.405,-0.245
'9:12.067',-0.385,-0.240
'9:12.069',-0.390,-0.240
'9:12.072',-0.385,-0.240
'9:12.075',-0.375,-0.250
'9:12.078',-0.385,-0.245
'9:12.081',-0.390,-0.255
'9:12.083',-0.385,-0.245
'9:12.086',-0.390,-0.260
'9:12.089',-0.375,-0.260
'9:12.092',-0.375,-0.245
'9:12.094',-0.370,-0.250
'9:12.097',-0.360,-0.225
'9:12.100',-0.350,-0.225
'9:12.103',-0.355,-0.215
'9:12.106',-0.345,-0.200
'9:12.108',-0.335,-0.200
'9:12.111',-0.340,-0.210
'9:12.114',-0.325,-0.205
'9:12.117',-0.325,-0.205
'9:12.119',-0.315,-0.200
'9:12.122',-0.305,-0.210
'9:12.125',-0.295,-0.200
'9:12.128',-0.285,-0.195
'9:12.131',-0.290,-0.200
'9:12.133',-0.275,-0.200
'9:12.136',-0.280,-0.220
'9:12.139',-0.265,-0.230
'9:12.142',-0.270,-0.260
'9:12.144',-0.275,-0.290
'9:12.147',-0.290,-0.315
'9:12.150',-0.295,-0.325
'9:12.153',-0.315,-0.325
'9:12.156',-0.340,-0.320
'9:12.158',-0.345,-0.310
'9:12.161',-0.370,-0.295
'9:12.164',-0.375,-0.280
'9:12.167',-0.390,-0.280
'9:12.169',-0.390,-0.255
'9:12.172',-0.390,-0.245
'9:12.175',-0.395,-0.245
'9:12.178',-0.405,-0.255
'9:12.181',-0.425,-0.255
'9:12.183',-0.425,-0.260
'9:12.186',-0.440,-0.260
'9:12.189',-0.460,-0.275
'9:12.192',-0.450,-0.265
'9:12.194',-0.440,-0.245
'9:12.197',-0.430,-0.245
'9:12.200',-0.415,-0.240
'9:12.203',-0.415,-0.235
'9:12.206',-0.410,-0.235
'9:12.208',-0.410,-0.255
'9:12.211',-0.415,-0.255
'9:12.214',-0.425,-0.265
'9:12.217',-0.425,-0.265
'9:12.219',-0.435,-0.275
'9:12.222',-0.430,-0.285
'9:12.225',-0.430,-0.285
'9:12.228',-0.415,-0.280
'9:12.231',-0.390,-0.265
'9:12.233',-0.360,-0.265
'9:12.236',-0.330,-0.245
'9:12.239',-0.300,-0.260
'9:12.242',-0.250,-0.270
'9:12.244',-0.205,-0.275
'9:12.247',-0.155,-0.290
'9:12.250',-0.125,-0.300
'9:12.253',-0.065,-0.300
'9:12.256',0.005,-0.320
'9:12.258',0.065,-0.315
'9:12.261',0.145,-0.325
'9:12.264',0.225,-0.335
'9:12.267',0.275,-0.365
'9:12.269',0.320,-0.410
'9:12.272',0.350,-0.490
'9:12.275',0.370,-0.600
'9:12.278',0.385,-0.705
'9:12.281',0.410,-0.810
'9:12.283',0.460,-0.905
'9:12.286',0.490,-1.000
'9:12.289',0.465,-1.100
'9:12.292',0.375,-1.175
'9:12.294',0.220,-1.255
'9:12.297',0.025,-1.315
'9:12.300',-0.180,-1.350
'9:12.303',-0.370,-1.345
'9:12.306',-0.515,-1.290
'9:12.308',-0.615,-1.245
'9:12.311',-0.660,-1.160
'9:12.314',-0.665,-1.085
'9:12.317',-0.665,-1.000
'9:12.319',-0.655,-0.920
'9:12.322',-0.635,-0.860
'9:12.325',-0.625,-0.775
'9:12.328',-0.595,-0.705
'9:12.331',-0.570,-0.635
'9:12.333',-0.550,-0.570
'9:12.336',-0.525,-0.500
'9:12.339',-0.490,-0.435
'9:12.342',-0.490,-0.370
'9:12.344',-0.505,-0.310
'9:12.347',-0.495,-0.275
'9:12.350',-0.505,-0.280
'9:12.353',-0.510,-0.275
'9:12.356',-0.515,-0.285
'9:12.358',-0.530,-0.280
'9:12.361',-0.520,-0.260
'9:12.364',-0.520,-0.255
'9:12.367',-0.515,-0.245
'9:12.369',-0.515,-0.225
'9:12.372',-0.495,-0.215
'9:12.375',-0.505,-0.210
'9:12.378',-0.485,-0.215
'9:12.381',-0.505,-0.230
'9:12.383',-0.505,-0.225
'9:12.386',-0.515,-0.240
'9:12.389',-0.525,-0.240
'9:12.392',-0.515,-0.235
'9:12.394',-0.510,-0.230
'9:12.397',-0.505,-0.215
'9:12.400',-0.505,-0.220
'9:12.403',-0.495,-0.215
'9:12.406',-0.490,-0.215
'9:12.408',-0.500,-0.220
'9:12.411',-0.510,-0.215
'9:12.414',-0.520,-0.210
'9:12.417',-0.525,-0.215
'9:12.419',-0.530,-0.220
'9:12.422',-0.545,-0.225
'9:12.425',-0.560,-0.230
'9:12.428',-0.550,-0.215
'9:12.431',-0.545,-0.215
'9:12.433',-0.540,-0.210
'9:12.436',-0.540,-0.205
'9:12.439',-0.540,-0.195
'9:12.442',-0.535,-0.210
'9:12.444',-0.535,-0.205
'9:12.447',-0.535,-0.210
'9:12.450',-0.520,-0.215
'9:12.453',-0.535,-0.215
'9:12.456',-0.545,-0.225
'9:12.458',-0.540,-0.210
'9:12.461',-0.540,-0.205
'9:12.464',-0.545,-0.190
'9:12.467',-0.550,-0.185
'9:12.469',-0.545,-0.175
'9:12.472',-0.545,-0.160
'9:12.475',-0.545,-0.175
'9:12.478',-0.545,-0.175
'9:12.481',-0.545,-0.165
'9:12.483',-0.545,-0.180
'9:12.486',-0.555,-0.190
'9:12.489',-0.555,-0.185
'9:12.492',-0.560,-0.185
'9:12.494',-0.550,-0.175
'9:12.497',-0.555,-0.165
'9:12.500',-0.540,-0.150
'9:12.503',-0.545,-0.145
'9:12.506',-0.535,-0.135
'9:12.508',-0.520,-0.130
'9:12.511',-0.525,-0.125
'9:12.514',-0.525,-0.135
'9:12.517',-0.525,-0.135
'9:12.519',-0.525,-0.145
'9:12.522',-0.525,-0.160
'9:12.525',-0.510,-0.135
'9:12.528',-0.520,-0.125
'9:12.531',-0.500,-0.115
'9:12.533',-0.500,-0.115
'9:12.536',-0.480,-0.115
'9:12.539',-0.460,-0.100
'9:12.542',-0.460,-0.115
'9:12.544',-0.440,-0.100
'9:12.547',-0.430,-0.100
'9:12.550',-0.430,-0.125
'9:12.553',-0.420,-0.135
'9:12.556',-0.420,-0.145
'9:12.558',-0.420,-0.135
'9:12.561',-0.405,-0.145
'9:12.564',-0.400,-0.135
'9:12.567',-0.390,-0.120
'9:12.569',-0.390,-0.125
'9:12.572',-0.365,-0.130
'9:12.575',-0.375,-0.150
'9:12.578',-0.375,-0.165
'9:12.581',-0.365,-0.180
'9:12.583',-0.370,-0.190
'9:12.586',-0.385,-0.210
'9:12.589',-0.390,-0.225
'9:12.592',-0.395,-0.210
'9:12.594',-0.400,-0.210
'9:12.597',-0.400,-0.210
'9:12.600',-0.400,-0.230
'9:12.603',-0.400,-0.210
'9:12.606',-0.415,-0.230
'9:12.608',-0.420,-0.230
'9:12.611',-0.415,-0.240
'9:12.614',-0.415,-0.245
'9:12.617',-0.430,-0.255
'9:12.619',-0.435,-0.265
'9:12.622',-0.435,-0.275
'9:12.625',-0.440,-0.270
'9:12.628',-0.435,-0.260
'9:12.631',-0.435,-0.265
'9:12.633',-0.430,-0.260
'9:12.636',-0.435,-0.250
'9:12.639',-0.430,-0.250
'9:12.642',-0.430,-0.255
'9:12.644',-0.435,-0.250
'9:12.647',-0.445,-0.265
'9:12.650',-0.450,-0.285
'9:12.653',-0.460,-0.285
'9:12.656',-0.450,-0.300
'9:12.658',-0.470,-0.285
'9:12.661',-0.465,-0.295
'9:12.664',-0.465,-0.270
'9:12.667',-0.465,-0.270
'9:12.669',-0.460,-0.255
'9:12.672',-0.445,-0.260
'9:12.675',-0.435,-0.265
'9:12.678',-0.435,-0.270
'9:12.681',-0.445,-0.280
'9:12.683',-0.455,-0.290
'9:12.686',-0.465,-0.290
'9:12.689',-0.480,-0.300
'9:12.692',-0.480,-0.295
'9:12.694',-0.490,-0.275
'9:12.697',-0.485,-0.275
'9:12.700',-0.475,-0.265
'9:12.703',-0.475,-0.265
'9:12.706',-0.470,-0.265
'9:12.708',-0.465,-0.260
'9:12.711',-0.475,-0.260
'9:12.714',-0.480,-0.270
'9:12.717',-0.495,-0.275
'9:12.719',-0.490,-0.275
'9:12.722',-0.500,-0.280
'9:12.725',-0.500,-0.280
'9:12.728',-0.500,-0.275
'9:12.731',-0.495,-0.265
'9:12.733',-0.490,-0.270
'9:12.736',-0.480,-0.255
'9:12.739',-0.470,-0.245
'9:12.742',-0.460,-0.245
'9:12.744',-0.465,-0.250
'9:12.747',-0.485,-0.245
'9:12.750',-0.495,-0.245
'9:12.753',-0.475,-0.260
'9:12.756',-0.470,-0.265
'9:12.758',-0.465,-0.250
'9:12.761',-0.465,-0.245
'9:12.764',-0.460,-0.245
'9:12.767',-0.435,-0.230
'9:12.769',-0.430,-0.235
'9:12.772',-0.415,-0.225
'9:12.775',-0.420,-0.225
'9:12.778',-0.415,-0.240
'9:12.781',-0.425,-0.225
'9:12.783',-0.415,-0.230
'9:12.786',-0.420,-0.230
'9:12.789',-0.410,-0.225
'9:12.792',-0.400,-0.215
'9:12.794',-0.385,-0.225
'9:12.797',-0.380,-0.200
'9:12.800',-0.355,-0.190
'9:12.803',-0.345,-0.190
'9:12.806',-0.330,-0.185
'9:12.808',-0.315,-0.195
'9:12.811',-0.330,-0.205
'9:12.814',-0.315,-0.220
'9:12.817',-0.320,-0.245
'9:12.819',-0.325,-0.280
'9:12.822',-0.340,-0.305
'9:12.825',-0.350,-0.320
'9:12.828',-0.370,-0.320
'9:12.831',-0.370,-0.320
'9:12.833',-0.375,-0.295
'9:12.836',-0.380,-0.285
'9:12.839',-0.390,-0.275
'9:12.842',-0.390,-0.270
'9:12.844',-0.415,-0.270
'9:12.847',-0.415,-0.280
'9:12.850',-0.435,-0.275
'9:12.853',-0.445,-0.280
'9:12.856',-0.460,-0.295
'9:12.858',-0.470,-0.270
'9:12.861',-0.490,-0.270
'9:12.864',-0.495,-0.255
'9:12.867',-0.495,-0.245
'9:12.869',-0.490,-0.235
'9:12.872',-0.495,-0.240
'9:12.875',-0.495,-0.240
'9:12.878',-0.510,-0.255
'9:12.881',-0.505,-0.275
'9:12.883',-0.505,-0.265
'9:12.886',-0.500,-0.280
'9:12.889',-0.505,-0.280
'9:12.892',-0.500,-0.275
'9:12.894',-0.500,-0.280
'9:12.897',-0.495,-0.270
'9:12.900',-0.470,-0.260
'9:12.903',-0.465,-0.270
'9:12.906',-0.455,-0.260
'9:12.908',-0.440,-0.260
'9:12.911',-0.440,-0.270
'9:12.914',-0.430,-0.285
'9:12.917',-0.420,-0.290
'9:12.919',-0.400,-0.300
'9:12.922',-0.360,-0.305
'9:12.925',-0.330,-0.295
'9:12.928',-0.245,-0.290
'9:12.931',-0.190,-0.275
'9:12.933',-0.130,-0.275
'9:12.936',-0.065,-0.270
'9:12.939',0.005,-0.285
'9:12.942',0.110,-0.300
'9:12.944',0.195,-0.340
'9:12.947',0.255,-0.395
'9:12.950',0.295,-0.485
'9:12.953',0.335,-0.595
'9:12.956',0.355,-0.725
'9:12.958',0.410,-0.860
'9:12.961',0.455,-1.000
'9:12.964',0.435,-1.140
'9:12.967',0.335,-1.245
'9:12.969',0.135,-1.335
'9:12.972',-0.100,-1.370
'9:12.975',-0.345,-1.370
'9:12.978',-0.570,-1.315
'9:12.981',-0.700,-1.200
'9:12.983',-0.780,-1.075
'9:12.986',-0.790,-0.950
'9:12.989',-0.740,-0.830
'9:12.992',-0.685,-0.725
'9:12.994',-0.620,-0.635
'9:12.997',-0.575,-0.555
'9:13.000',-0.540,-0.480
'9:13.003',-0.515,-0.410
'9:13.006',-0.515,-0.340
'9:13.008',-0.530,-0.305
'9:13.011',-0.555,-0.275
'9:13.014',-0.540,-0.270
'9:13.017',-0.560,-0.280
'9:13.019',-0.560,-0.290
'9:13.022',-0.565,-0.285
'9:13.025',-0.570,-0.290
'9:13.028',-0.560,-0.285
'9:13.031',-0.565,-0.265
'9:13.033',-0.545,-0.250
'9:13.036',-0.540,-0.230
'9:13.039',-0.525,-0.230
'9:13.042',-0.525,-0.230
'9:13.044',-0.535,-0.235
'9:13.047',-0.540,-0.255
'9:13.050',-0.550,-0.240
'9:13.053',-0.550,-0.255
'9:13.056',-0.555,-0.250
'9:13.058',-0.560,-0.240
'9:13.061',-0.555,-0.245
'9:13.064',-0.560,-0.240
'9:13.067',-0.535,-0.235
'9:13.069',-0.530,-0.235
'9:13.072',-0.530,-0.210
'9:13.075',-0.525,-0.240
'9:13.078',-0.535,-0.235
'9:13.081',-0.540,-0.235
'9:13.083',-0.550,-0.240
'9:13.086',-0.555,-0.250
'9:13.089',-0.565,-0.250
'9:13.092',-0.575,-0.255
'9:13.094',-0.575,-0.245
'9:13.097',-0.575,-0.230
'9:13.100',-0.555,-0.235
'9:13.103',-0.570,-0.220
'9:13.106',-0.560,-0.210
'9:13.108',-0.545,-0.215
'9:13.111',-0.565,-0.215
'9:13.114',-0.565,-0.215
'9:13.117',-0.565,-0.225
'9:13.119',-0.580,-0.230
'9:13.122',-0.605,-0.235
'9:13.125',-0.595,-0.230
'9:13.128',-0.580,-0.225
'9:13.131',-0.590,-0.215
'9:13.133',-0.575,-0.200
'9:13.136',-0.575,-0.205
'9:13.139',-0.570,-0.175
'9:13.142',-0.565,-0.200
'9:13.144',-0.565,-0.185
'9:13.147',-0.560,-0.210
'9:13.150',-0.555,-0.200
'9:13.153',-0.550,-0.195
'9:13.156',-0.565,-0.200
'9:13.158',-0.565,-0.185
'9:13.161',-0.575,-0.185
'9:13.164',-0.575,-0.175
'9:13.167',-0.570,-0.165
'9:13.169',-0.560,-0.155
'9:13.172',-0.535,-0.150
'9:13.175',-0.525,-0.140
'9:13.178',-0.520,-0.130
'9:13.181',-0.525,-0.140
'9:13.183',-0.520,-0.150
'9:13.186',-0.505,-0.155
'9:13.189',-0.505,-0.160
'9:13.192',-0.490,-0.155
'9:13.194',-0.475,-0.140
'9:13.197',-0.460,-0.135
'9:13.200',-0.450,-0.125
'9:13.203',-0.430,-0.120
'9:13.206',-0.430,-0.115
'9:13.208',-0.410,-0.130
'9:13.211',-0.400,-0.130
'9:13.214',-0.400,-0.145
'9:13.217',-0.395,-0.150
'9:13.219',-0.390,-0.160
'9:13.222',-0.390,-0.170
'9:13.225',-0.385,-0.165
'9:13.228',-0.400,-0.175
'9:13.231',-0.395,-0.170
'9:13.233',-0.380,-0.180
'9:13.236',-0.370,-0.180
'9:13.239',-0.370,-0.185
'9:13.242',-0.370,-0.190
'9:13.244',-0.380,-0.195
'9:13.247',-0.390,-0.225
'9:13.250',-0.405,-0.225
'9:13.253',-0.420,-0.245
'9:13.256',-0.425,-0.250
'9:13.258',-0.430,-0.255
'9:13.261',-0.425,-0.255
'9:13.264',-0.435,-0.250
'9:13.267',-0.420,-0.245
'9:13.269',-0.425,-0.250
'9:13.272',-0.420,-0.245
'9:13.275',-0.425,-0.245
'9:13.278',-0.425,-0.260
'9:13.281',-0.430,-0.275
'9:13.283',-0.435,-0.285
'9:13.286',-0.445,-0.275
'9:13.289',-0.455,-0.285
'9:13.292',-0.475,-0.285
'9:13.294',-0.460,-0.280
'9:13.297',-0.460,-0.270
'9:13.300',-0.445,-0.285
'9:13.303',-0.440,-0.275
'9:13.306',-0.435,-0.260
'9:13.308',-0.435,-0.265
'9:13.311',-0.440,-0.270
'9:13.314',-0.450,-0.290
'9:13.317',-0.455,-0.300
'9:13.319',-0.455,-0.295
'9:13.322',-0.475,-0.305
'9:13.325',-0.470,-0.295
'9:13.328',-0.465,-0.290
'9:13.331',-0.455,-0.290
'9:13.333',-0.455,-0.290
'9:13.336',-0.450,-0.285
'9:13.339',-0.450,-0.275
'9:13.342',-0.450,-0.275
'9:13.344',-0.460,-0.285
'9:13.347',-0.455,-0.270
'9:13.350',-0.470,-0.285
'9:13.353',-0.465,-0.305
'9:13.356',-0.480,-0.305
'9:13.358',-0.490,-0.300
