'Elapsed time','MLII','V1'
'hh:mm:ss.mmm','mV','mV'
'26:00.000',-0.050,-0.210
'26:00.003',0.005,-0.350
'26:00.006',0.075,-0.535
'26:00.008',0.145,-0.730
'26:00.011',0.230,-0.880
'26:00.014',0.305,-0.975
'26:00.017',0.350,-1.040
'26:00.019',0.365,-1.065
'26:00.022',0.365,-1.025
'26:00.025',0.370,-0.855
'26:00.028',0.355,-0.630
'26:00.031',0.285,-0.425
'26:00.033',0.160,-0.280
'26:00.036',0.060,-0.205
'26:00.039',0.060,-0.090
'26:00.042',0.100,0.015
'26:00.044',0.055,0.120
'26:00.047',-0.050,0.210
'26:00.050',-0.150,0.260
'26:00.053',-0.240,0.305
'26:00.056',-0.285,0.375
'26:00.058',-0.320,0.445
'26:00.061',-0.355,0.510
'26:00.064',-0.390,0.595
'26:00.067',-0.430,0.620
'26:00.069',-0.465,0.640
'26:00.072',-0.480,0.615
'26:00.075',-0.490,0.575
'26:00.078',-0.500,0.510
'26:00.081',-0.530,0.420
'26:00.083',-0.550,0.325
'26:00.086',-0.550,0.240
'26:00.089',-0.525,0.175
'26:00.092',-0.470,0.120
'26:00.094',-0.385,0.050
'26:00.097',-0.325,-0.005
'26:00.100',-0.265,-0.045
'26:00.103',-0.245,-0.075
'26:00.106',-0.220,-0.085
'26:00.108',-0.195,-0.085
'26:00.111',-0.175,-0.095
'26:00.114',-0.180,-0.115
'26:00.117',-0.195,-0.125
'26:00.119',-0.195,-0.130
'26:00.122',-0.200,-0.125
'26:00.125',-0.180,-0.135
'26:00.128',-0.175,-0.125
'26:00.131',-0.170,-0.130
'26:00.133',-0.180,-0.145
'26:00.136',-0.185,-0.155
'26:00.139',-0.175,-0.155
'26:00.142',-0.170,-0.150
'26:00.144',-0.160,-0.135
'26:00.147',-0.160,-0.160
'26:00.150',-0.175,-0.160
'26:00.153',-0.160,-0.175
'26:00.156',-0.165,-0.170
'26:00.158',-0.155,-0.165
'26:00.161',-0.145,-0.150
'26:00.164',-0.145,-0.145
'26:00.167',-0.135,-0.170
'26:00.169',-0.140,-0.175
'26:00.172',-0.140,-0.185
'26:00.175',-0.135,-0.175
'26:00.178',-0.135,-0.170
'26:00.181',-0.125,-0.175
'26:00.183',-0.115,-0.195
'26:00.186',-0.120,-0.200
'26:00.189',-0.110,-0.205
'26:00.192',-0.110,-0.195
'26:00.194',-0.095,-0.190
'26:00.197',-0.085,-0.200
'26:00.200',-0.070,-0.215
'26:00.203',-0.075,-0.230
'26:00.206',-0.065,-0.230
'26:00.208',-0.040,-0.230
'26:00.211',-0.040,-0.220
'26:00.214',-0.025,-0.235
'26:00.217',-0.020,-0.250
'26:00.219',-0.005,-0.265
'26:00.222',0.005,-0.260
'26:00.225',0.020,-0.265
'26:00.228',0.045,-0.270
'26:00.231',0.060,-0.275
'26:00.233',0.065,-0.295
'26:00.236',0.065,-0.310
'26:00.239',0.075,-0.305
'26:00.242',0.115,-0.305
'26:00.244',0.135,-0.310
'26:00.247',0.140,-0.330
'26:00.250',0.150,-0.335
'26:00.253',0.155,-0.345
'26:00.256',0.170,-0.345
'26:00.258',0.180,-0.340
'26:00.261',0.190,-0.335
'26:00.264',0.190,-0.335
'26:00.267',0.190,-0.340
'26:00.269',0.170,-0.355
'26:00.272',0.165,-0.335
'26:00.275',0.165,-0.315
'26:00.278',0.160,-0.315
'26:00.281',0.150,-0.310
'26:00.283',0.125,-0.310
'26:00.286',0.100,-0.295
'26:00.289',0.075,-0.285
'26:00.292',0.060,-0.265
'26:00.294',0.045,-0.255
'26:00.297',0.025,-0.230
'26:00.300',0.005,-0.230
'26:00.303',-0.015,-0.220
'26:00.306',-0.035,-0.195
'26:00.308',-0.040,-0.190
'26:00.311',-0.055,-0.160
'26:00.314',-0.070,-0.150
'26:00.317',-0.090,-0.155
'26:00.319',-0.120,-0.145
'26:00.322',-0.130,-0.130
'26:00.325',-0.140,-0.110
'26:00.328',-0.130,-0.075
'26:00.331',-0.140,-0.050
'26:00.333',-0.145,-0.035
'26:00.336',-0.150,-0.040
'26:00.339',-0.165,-0.020
'26:00.342',-0.150,-0.040
'26:00.344',-0.145,-0.060
'26:00.347',-0.125,-0.115
'26:00.350',-0.080,-0.210
'26:00.353',-0.040,-0.320
'26:00.356',0.030,-0.475
'26:00.358',0.130,-0.655
'26:00.361',0.235,-0.785
'26:00.364',0.345,-0.870
'26:00.367',0.450,-0.905
'26:00.369',0.490,-0.895
'26:00.372',0.530,-0.830
'26:00.375',0.565,-0.680
'26:00.378',0.565,-0.515
'26:00.381',0.480,-0.390
'26:00.383',0.365,-0.290
'26:00.386',0.210,-0.210
'26:00.389',0.115,-0.090
'26:00.392',0.100,0.025
'26:00.394',0.070,0.150
'26:00.397',-0.020,0.220
'26:00.400',-0.135,0.275
'26:00.403',-0.240,0.300
'26:00.406',-0.315,0.370
'26:00.408',-0.365,0.425
'26:00.411',-0.390,0.480
'26:00.414',-0.430,0.530
'26:00.417',-0.465,0.555
'26:00.419',-0.485,0.540
'26:00.422',-0.520,0.520
'26:00.425',-0.550,0.465
'26:00.428',-0.570,0.405
'26:00.431',-0.615,0.335
'26:00.433',-0.640,0.270
'26:00.436',-0.635,0.190
'26:00.439',-0.610,0.130
'26:00.442',-0.535,0.050
'26:00.444',-0.450,0.005
'26:00.447',-0.380,-0.025
'26:00.450',-0.335,-0.050
'26:00.453',-0.310,-0.055
'26:00.456',-0.285,-0.060
'26:00.458',-0.265,-0.045
'26:00.461',-0.265,-0.060
'26:00.464',-0.275,-0.060
'26:00.467',-0.270,-0.080
'26:00.469',-0.275,-0.095
'26:00.472',-0.265,-0.090
'26:00.475',-0.255,-0.090
'26:00.478',-0.240,-0.090
'26:00.481',-0.250,-0.100
'26:00.483',-0.245,-0.100
'26:00.486',-0.250,-0.115
'26:00.489',-0.245,-0.105
'26:00.492',-0.240,-0.110
'26:00.494',-0.240,-0.105
'26:00.497',-0.235,-0.110
'26:00.500',-0.245,-0.110
'26:00.503',-0.240,-0.125
'26:00.506',-0.235,-0.120
'26:00.508',-0.225,-0.100
'26:00.511',-0.210,-0.120
'26:00.514',-0.225,-0.115
'26:00.517',-0.230,-0.140
'26:00.519',-0.240,-0.140
'26:00.522',-0.225,-0.145
'26:00.525',-0.215,-0.125
'26:00.528',-0.200,-0.135
'26:00.531',-0.195,-0.140
'26:00.533',-0.200,-0.165
'26:00.536',-0.210,-0.165
'26:00.539',-0.205,-0.160
'26:00.542',-0.195,-0.155
'26:00.544',-0.175,-0.170
'26:00.547',-0.185,-0.170
'26:00.550',-0.175,-0.180
'26:00.553',-0.180,-0.190
'26:00.556',-0.175,-0.195
'26:00.558',-0.165,-0.195
'26:00.561',-0.155,-0.190
'26:00.564',-0.155,-0.200
'26:00.567',-0.150,-0.220
'26:00.569',-0.140,-0.230
'26:00.572',-0.135,-0.235
'26:00.575',-0.120,-0.230
'26:00.578',-0.100,-0.230
'26:00.581',-0.095,-0.245
'26:00.583',-0.095,-0.255
'26:00.586',-0.090,-0.270
'26:00.589',-0.080,-0.280
'26:00.592',-0.060,-0.270
'26:00.594',-0.040,-0.275
'26:00.597',-0.025,-0.285
'26:00.600',-0.025,-0.300
'26:00.603',-0.020,-0.315
'26:00.606',-0.015,-0.320
'26:00.608',0.020,-0.305
'26:00.611',0.020,-0.310
'26:00.614',0.030,-0.305
'26:00.617',0.045,-0.315
'26:00.619',0.045,-0.320
'26:00.622',0.040,-0.320
'26:00.625',0.035,-0.295
'26:00.628',0.035,-0.290
'26:00.631',0.020,-0.280
'26:00.633',0.010,-0.285
'26:00.636',0.000,-0.285
'26:00.639',-0.015,-0.265
'26:00.642',-0.025,-0.245
'26:00.644',-0.035,-0.225
'26:00.647',-0.050,-0.225
'26:00.650',-0.060,-0.220
'26:00.653',-0.090,-0.210
'26:00.656',-0.105,-0.195
'26:00.658',-0.110,-0.175
'26:00.661',-0.120,-0.160
'26:00.664',-0.145,-0.140
'26:00.667',-0.145,-0.135
'26:00.669',-0.165,-0.140
'26:00.672',-0.180,-0.125
'26:00.675',-0.185,-0.110
'26:00.678',-0.185,-0.100
'26:00.681',-0.205,-0.085
'26:00.683',-0.215,-0.075
'26:00.686',-0.230,-0.090
'26:00.689',-0.240,-0.075
'26:00.692',-0.235,-0.065
'26:00.694',-0.225,-0.060
'26:00.697',-0.235,-0.065
'26:00.700',-0.240,-0.075
'26:00.703',-0.265,-0.070
'26:00.706',-0.265,-0.060
'26:00.708',-0.265,-0.045
'26:00.711',-0.255,-0.035
'26:00.714',-0.255,-0.035
'26:00.717',-0.270,-0.055
'26:00.719',-0.275,-0.070
'26:00.722',-0.275,-0.050
'26:00.725',-0.270,-0.040
'26:00.728',-0.255,-0.035
'26:00.731',-0.270,-0.040
'26:00.733',-0.280,-0.060
'26:00.736',-0.285,-0.065
'26:00.739',-0.285,-0.045
'26:00.742',-0.280,-0.040
'26:00.744',-0.275,-0.040
'26:00.747',-0.285,-0.055
'26:00.750',-0.295,-0.050
'26:00.753',-0.300,-0.050
'26:00.756',-0.290,-0.050
'26:00.758',-0.295,-0.045
'26:00.761',-0.285,-0.045
'26:00.764',-0.290,-0.050
'26:00.767',-0.300,-0.055
'26:00.769',-0.315,-0.055
'26:00.772',-0.305,-0.035
'26:00.775',-0.290,-0.030
'26:00.778',-0.295,-0.045
'26:00.781',-0.305,-0.040
'26:00.783',-0.295,-0.050
'26:00.786',-0.300,-0.060
'26:00.789',-0.305,-0.055
'26:00.792',-0.310,-0.040
'26:00.794',-0.310,-0.035
'26:00.797',-0.310,-0.040
'26:00.800',-0.315,-0.055
'26:00.803',-0.315,-0.060
'26:00.806',-0.310,-0.045
'26:00.808',-0.305,-0.040
'26:00.811',-0.300,-0.040
'26:00.814',-0.300,-0.040
'26:00.817',-0.315,-0.055
'26:00.819',-0.315,-0.070
'26:00.822',-0.315,-0.060
'26:00.825',-0.310,-0.050
'26:00.828',-0.305,-0.040
'26:00.831',-0.305,-0.035
'26:00.833',-0.310,-0.055
'26:00.836',-0.320,-0.060
'26:00.839',-0.330,-0.060
'26:00.842',-0.320,-0.050
'26:00.844',-0.305,-0.055
'26:00.847',-0.310,-0.040
'26:00.850',-0.315,-0.055
'26:00.853',-0.320,-0.060
'26:00.856',-0.315,-0.065
'26:00.858',-0.315,-0.045
'26:00.861',-0.295,-0.045
'26:00.864',-0.305,-0.045
'26:00.867',-0.305,-0.055
'26:00.869',-0.315,-0.070
'26:00.872',-0.315,-0.065
'26:00.875',-0.320,-0.050
'26:00.878',-0.305,-0.035
'26:00.881',-0.300,-0.045
'26:00.883',-0.310,-0.055
'26:00.886',-0.320,-0.075
'26:00.889',-0.320,-0.065
'26:00.892',-0.300,-0.050
'26:00.894',-0.300,-0.040
'26:00.897',-0.300,-0.040
'26:00.900',-0.305,-0.055
'26:00.903',-0.320,-0.065
'26:00.906',-0.315,-0.050
'26:00.908',-0.315,-0.050
'26:00.911',-0.290,-0.060
'26:00.914',-0.305,-0.050
'26:00.917',-0.305,-0.065
'26:00.919',-0.325,-0.080
'26:00.922',-0.315,-0.055
'26:00.925',-0.295,-0.060
'26:00.928',-0.295,-0.055
'26:00.931',-0.295,-0.055
'26:00.933',-0.305,-0.065
'26:00.936',-0.310,-0.065
'26:00.939',-0.300,-0.060
'26:00.942',-0.295,-0.050
'26:00.944',-0.275,-0.040
'26:00.947',-0.285,-0.055
'26:00.950',-0.295,-0.060
'26:00.953',-0.305,-0.065
'26:00.956',-0.300,-0.055
'26:00.958',-0.290,-0.045
'26:00.961',-0.290,-0.050
'26:00.964',-0.285,-0.045
'26:00.967',-0.310,-0.055
'26:00.969',-0.310,-0.065
'26:00.972',-0.305,-0.060
'26:00.975',-0.290,-0.050
'26:00.978',-0.285,-0.055
'26:00.981',-0.295,-0.050
'26:00.983',-0.295,-0.060
'26:00.986',-0.295,-0.065
'26:00.989',-0.300,-0.060
'26:00.992',-0.285,-0.060
'26:00.994',-0.280,-0.055
'26:00.997',-0.285,-0.050
'26:01.000',-0.300,-0.060
'26:01.003',-0.300,-0.070
'26:01.006',-0.305,-0.060
'26:01.008',-0.300,-0.060
'26:01.011',-0.290,-0.050
'26:01.014',-0.290,-0.065
'26:01.017',-0.285,-0.055
'26:01.019',-0.285,-0.065
'26:01.022',-0.280,-0.060
'26:01.025',-0.280,-0.050
'26:01.028',-0.260,-0.045
'26:01.031',-0.260,-0.055
'26:01.033',-0.270,-0.065
'26:01.036',-0.270,-0.065
'26:01.039',-0.275,-0.070
'26:01.042',-0.270,-0.055
'26:01.044',-0.260,-0.055
'26:01.047',-0.265,-0.050
'26:01.050',-0.270,-0.060
'26:01.053',-0.270,-0.060
'26:01.056',-0.270,-0.075
'26:01.058',-0.270,-0.060
'26:01.061',-0.260,-0.055
'26:01.064',-0.260,-0.060
'26:01.067',-0.260,-0.070
'26:01.069',-0.275,-0.065
'26:01.072',-0.275,-0.075
'26:01.075',-0.260,-0.065
'26:01.078',-0.260,-0.060
'26:01.081',-0.255,-0.060
'26:01.083',-0.260,-0.065
'26:01.086',-0.270,-0.065
'26:01.089',-0.265,-0.060
'26:01.092',-0.260,-0.045
'26:01.094',-0.255,-0.045
'26:01.097',-0.260,-0.055
'26:01.100',-0.265,-0.065
'26:01.103',-0.270,-0.075
'26:01.106',-0.260,-0.075
'26:01.108',-0.255,-0.075
'26:01.111',-0.240,-0.060
'26:01.114',-0.245,-0.065
'26:01.117',-0.250,-0.060
'26:01.119',-0.260,-0.080
'26:01.122',-0.275,-0.070
'26:01.125',-0.260,-0.060
'26:01.128',-0.250,-0.055
'26:01.131',-0.255,-0.055
'26:01.133',-0.240,-0.065
'26:01.136',-0.250,-0.075
'26:01.139',-0.250,-0.065
'26:01.142',-0.240,-0.060
'26:01.144',-0.255,-0.070
'26:01.147',-0.255,-0.055
'26:01.150',-0.250,-0.070
'26:01.153',-0.255,-0.075
'26:01.156',-0.260,-0.070
'26:01.158',-0.245,-0.055
'26:01.161',-0.240,-0.060
'26:01.164',-0.235,-0.065
'26:01.167',-0.245,-0.070
'26:01.169',-0.260,-0.065
'26:01.172',-0.265,-0.070
'26:01.175',-0.260,-0.065
'26:01.178',-0.240,-0.065
'26:01.181',-0.240,-0.050
'26:01.183',-0.245,-0.070
'26:01.186',-0.255,-0.075
'26:01.189',-0.255,-0.070
'26:01.192',-0.245,-0.070
'26:01.194',-0.235,-0.065
'26:01.197',-0.240,-0.065
'26:01.200',-0.240,-0.085
'26:01.203',-0.250,-0.080
'26:01.206',-0.250,-0.070
'26:01.208',-0.250,-0.070
'26:01.211',-0.230,-0.055
'26:01.214',-0.230,-0.050
'26:01.217',-0.230,-0.060
'26:01.219',-0.245,-0.070
'26:01.222',-0.245,-0.065
'26:01.225',-0.235,-0.060
'26:01.228',-0.220,-0.060
'26:01.231',-0.220,-0.055
'26:01.233',-0.220,-0.065
'26:01.236',-0.215,-0.065
'26:01.239',-0.215,-0.085
'26:01.242',-0.215,-0.070
'26:01.244',-0.205,-0.065
'26:01.247',-0.200,-0.065
'26:01.250',-0.200,-0.065
'26:01.253',-0.210,-0.090
'26:01.256',-0.205,-0.080
'26:01.258',-0.185,-0.080
'26:01.261',-0.165,-0.085
'26:01.264',-0.170,-0.115
'26:01.267',-0.170,-0.135
'26:01.269',-0.170,-0.135
'26:01.272',-0.180,-0.125
'26:01.275',-0.175,-0.100
'26:01.278',-0.170,-0.090
'26:01.281',-0.185,-0.095
'26:01.283',-0.185,-0.100
'26:01.286',-0.175,-0.110
'26:01.289',-0.175,-0.110
'26:01.292',-0.165,-0.105
'26:01.294',-0.150,-0.095
'26:01.297',-0.155,-0.100
'26:01.300',-0.180,-0.115
'26:01.303',-0.190,-0.115
'26:01.306',-0.195,-0.105
'26:01.308',-0.180,-0.090
'26:01.311',-0.170,-0.080
'26:01.314',-0.165,-0.085
'26:01.317',-0.175,-0.085
'26:01.319',-0.190,-0.075
'26:01.322',-0.200,-0.065
'26:01.325',-0.195,-0.050
'26:01.328',-0.195,-0.040
'26:01.331',-0.200,-0.050
'26:01.333',-0.210,-0.070
'26:01.336',-0.220,-0.085
'26:01.339',-0.225,-0.075
'26:01.342',-0.220,-0.060
'26:01.344',-0.225,-0.065
'26:01.347',-0.230,-0.065
'26:01.350',-0.230,-0.065
'26:01.353',-0.245,-0.080
'26:01.356',-0.250,-0.070
'26:01.358',-0.235,-0.065
'26:01.361',-0.225,-0.060
'26:01.364',-0.225,-0.060
'26:01.367',-0.235,-0.060
'26:01.369',-0.240,-0.075
'26:01.372',-0.245,-0.055
'26:01.375',-0.225,-0.055
'26:01.378',-0.215,-0.050
'26:01.381',-0.220,-0.055
'26:01.383',-0.220,-0.075
'26:01.386',-0.225,-0.070
'26:01.389',-0.225,-0.070
'26:01.392',-0.220,-0.055
'26:01.394',-0.210,-0.065
'26:01.397',-0.205,-0.050
'26:01.400',-0.225,-0.070
'26:01.403',-0.225,-0.080
'26:01.406',-0.230,-0.080
'26:01.408',-0.215,-0.065
'26:01.411',-0.205,-0.055
'26:01.414',-0.200,-0.065
'26:01.417',-0.215,-0.060
'26:01.419',-0.220,-0.045
'26:01.422',-0.215,-0.030
'26:01.425',-0.205,-0.005
'26:01.428',-0.180,0.020
'26:01.431',-0.165,-0.005
'26:01.433',-0.145,-0.065
'26:01.436',-0.125,-0.150
'26:01.439',-0.110,-0.220
'26:01.442',-0.085,-0.300
'26:01.444',-0.035,-0.385
'26:01.447',0.025,-0.510
'26:01.450',0.110,-0.640
'26:01.453',0.185,-0.770
'26:01.456',0.260,-0.895
'26:01.458',0.385,-0.965
'26:01.461',0.500,-0.975
'26:01.464',0.595,-0.935
'26:01.467',0.665,-0.885
'26:01.469',0.745,-0.815
'26:01.472',0.835,-0.685
'26:01.475',0.895,-0.550
'26:01.478',0.875,-0.425
'26:01.481',0.770,-0.325
'26:01.483',0.615,-0.270
'26:01.486',0.450,-0.215
'26:01.489',0.260,-0.200
'26:01.492',0.100,-0.190
'26:01.494',-0.010,-0.195
'26:01.497',-0.100,-0.175
'26:01.500',-0.155,-0.160
'26:01.503',-0.185,-0.150
'26:01.506',-0.175,-0.115
'26:01.508',-0.145,-0.090
'26:01.511',-0.135,-0.070
'26:01.514',-0.135,-0.075
'26:01.517',-0.145,-0.065
'26:01.519',-0.175,-0.065
'26:01.522',-0.190,-0.055
'26:01.525',-0.195,-0.050
'26:01.528',-0.195,-0.040
'26:01.531',-0.200,-0.040
'26:01.533',-0.205,-0.040
'26:01.536',-0.215,-0.050
'26:01.539',-0.220,-0.040
'26:01.542',-0.215,-0.040
'26:01.544',-0.215,-0.040
'26:01.547',-0.215,-0.040
'26:01.550',-0.225,-0.060
'26:01.553',-0.230,-0.050
'26:01.556',-0.235,-0.045
'26:01.558',-0.230,-0.030
'26:01.561',-0.220,-0.030
'26:01.564',-0.215,-0.025
'26:01.567',-0.220,-0.050
'26:01.569',-0.220,-0.050
'26:01.572',-0.225,-0.045
'26:01.575',-0.230,-0.035
'26:01.578',-0.220,-0.040
'26:01.581',-0.220,-0.040
'26:01.583',-0.220,-0.060
'26:01.586',-0.230,-0.055
'26:01.589',-0.230,-0.060
'26:01.592',-0.230,-0.045
'26:01.594',-0.215,-0.045
'26:01.597',-0.215,-0.055
'26:01.600',-0.225,-0.060
'26:01.603',-0.235,-0.070
'26:01.606',-0.225,-0.065
'26:01.608',-0.215,-0.045
'26:01.611',-0.195,-0.055
'26:01.614',-0.195,-0.065
'26:01.617',-0.205,-0.085
'26:01.619',-0.205,-0.090
'26:01.622',-0.210,-0.095
'26:01.625',-0.205,-0.080
'26:01.628',-0.190,-0.085
'26:01.631',-0.200,-0.095
'26:01.633',-0.210,-0.110
'26:01.636',-0.195,-0.125
'26:01.639',-0.185,-0.115
'26:01.642',-0.185,-0.110
'26:01.644',-0.165,-0.105
'26:01.647',-0.170,-0.115
'26:01.650',-0.175,-0.130
'26:01.653',-0.175,-0.130
'26:01.656',-0.175,-0.120
'26:01.658',-0.155,-0.125
'26:01.661',-0.135,-0.120
'26:01.664',-0.145,-0.115
'26:01.667',-0.135,-0.150
'26:01.669',-0.120,-0.145
'26:01.672',-0.120,-0.140
'26:01.675',-0.090,-0.140
'26:01.678',-0.070,-0.120
'26:01.681',-0.070,-0.140
'26:01.683',-0.060,-0.145
'26:01.686',-0.060,-0.155
'26:01.689',-0.055,-0.145
'26:01.692',-0.025,-0.145
'26:01.694',-0.005,-0.150
'26:01.697',0.005,-0.145
'26:01.700',0.005,-0.155
'26:01.703',0.010,-0.170
'26:01.706',0.025,-0.165
'26:01.708',0.045,-0.150
'26:01.711',0.055,-0.160
'26:01.714',0.035,-0.165
'26:01.717',0.010,-0.190
'26:01.719',0.000,-0.195
'26:01.722',-0.005,-0.195
'26:01.725',-0.005,-0.185
'26:01.728',-0.010,-0.195
'26:01.731',-0.015,-0.215
'26:01.733',-0.015,-0.215
'26:01.736',-0.025,-0.195
'26:01.739',-0.005,-0.200
'26:01.742',0.020,-0.185
'26:01.744',0.035,-0.190
'26:01.747',0.035,-0.190
'26:01.750',0.045,-0.205
'26:01.753',0.050,-0.210
'26:01.756',0.040,-0.215
'26:01.758',0.045,-0.205
'26:01.761',0.045,-0.215
'26:01.764',0.040,-0.215
'26:01.767',0.040,-0.220
'26:01.769',0.020,-0.220
'26:01.772',0.005,-0.210
'26:01.775',0.005,-0.200
'26:01.778',-0.005,-0.200
'26:01.781',-0.020,-0.190
'26:01.783',-0.045,-0.195
'26:01.786',-0.065,-0.200
'26:01.789',-0.080,-0.190
'26:01.792',-0.090,-0.170
'26:01.794',-0.095,-0.170
'26:01.797',-0.100,-0.170
'26:01.800',-0.125,-0.175
'26:01.803',-0.135,-0.195
'26:01.806',-0.150,-0.175
'26:01.808',-0.155,-0.155
'26:01.811',-0.150,-0.145
'26:01.814',-0.150,-0.150
'26:01.817',-0.155,-0.155
'26:01.819',-0.165,-0.165
'26:01.822',-0.165,-0.160
'26:01.825',-0.170,-0.150
'26:01.828',-0.170,-0.145
'26:01.831',-0.165,-0.145
'26:01.833',-0.180,-0.145
'26:01.836',-0.190,-0.150
'26:01.839',-0.190,-0.145
'26:01.842',-0.180,-0.125
'26:01.844',-0.165,-0.130
'26:01.847',-0.170,-0.130
'26:01.850',-0.165,-0.140
'26:01.853',-0.190,-0.140
'26:01.856',-0.185,-0.130
'26:01.858',-0.180,-0.135
'26:01.861',-0.180,-0.125
'26:01.864',-0.175,-0.115
'26:01.867',-0.180,-0.130
'26:01.869',-0.180,-0.135
'26:01.872',-0.185,-0.120
'26:01.875',-0.175,-0.120
'26:01.878',-0.185,-0.120
'26:01.881',-0.175,-0.125
'26:01.883',-0.175,-0.125
'26:01.886',-0.175,-0.125
'26:01.889',-0.180,-0.110
'26:01.892',-0.170,-0.105
'26:01.894',-0.170,-0.100
'26:01.897',-0.175,-0.110
'26:01.900',-0.180,-0.105
'26:01.903',-0.165,-0.105
'26:01.906',-0.175,-0.095
'26:01.908',-0.155,-0.085
'26:01.911',-0.140,-0.080
'26:01.914',-0.140,-0.070
'26:01.917',-0.135,-0.080
'26:01.919',-0.145,-0.080
'26:01.922',-0.150,-0.085
'26:01.925',-0.140,-0.065
'26:01.928',-0.135,-0.070
'26:01.931',-0.140,-0.075
'26:01.933',-0.140,-0.085
'26:01.936',-0.150,-0.115
'26:01.939',-0.140,-0.140
'26:01.942',-0.115,-0.170
'26:01.944',-0.100,-0.225
'26:01.947',-0.080,-0.320
'26:01.950',-0.075,-0.420
'26:01.953',-0.065,-0.460
'26:01.956',-0.020,-0.495
'26:01.958',0.050,-0.470
'26:01.961',0.140,-0.440
'26:01.964',0.215,-0.390
'26:01.967',0.250,-0.335
'26:01.969',0.275,-0.275
'26:01.972',0.315,-0.210
'26:01.975',0.375,-0.170
'26:01.978',0.410,-0.140
'26:01.981',0.420,-0.125
'26:01.983',0.395,-0.080
'26:01.986',0.340,-0.030
'26:01.989',0.275,-0.005
'26:01.992',0.235,-0.005
'26:01.994',0.220,-0.040
'26:01.997',0.205,-0.105
'26:02.000',0.180,-0.180
'26:02.003',0.150,-0.215
'26:02.006',0.145,-0.210
'26:02.008',0.170,-0.160
'26:02.011',0.200,-0.140
'26:02.014',0.235,-0.140
'26:02.017',0.260,-0.160
'26:02.019',0.275,-0.175
'26:02.022',0.295,-0.170
'26:02.025',0.305,-0.185
'26:02.028',0.295,-0.205
'26:02.031',0.240,-0.225
'26:02.033',0.180,-0.270
'26:02.036',0.100,-0.300
'26:02.039',0.035,-0.335
'26:02.042',-0.025,-0.345
'26:02.044',-0.065,-0.345
'26:02.047',-0.110,-0.335
'26:02.050',-0.160,-0.340
'26:02.053',-0.190,-0.325
'26:02.056',-0.220,-0.275
'26:02.058',-0.225,-0.240
'26:02.061',-0.245,-0.220
'26:02.064',-0.255,-0.205
'26:02.067',-0.270,-0.195
'26:02.069',-0.270,-0.190
'26:02.072',-0.275,-0.160
'26:02.075',-0.265,-0.140
'26:02.078',-0.255,-0.125
'26:02.081',-0.255,-0.125
'26:02.083',-0.265,-0.125
'26:02.086',-0.280,-0.135
'26:02.089',-0.290,-0.135
'26:02.092',-0.275,-0.120
'26:02.094',-0.270,-0.105
'26:02.097',-0.275,-0.110
'26:02.100',-0.280,-0.105
'26:02.103',-0.280,-0.115
'26:02.106',-0.285,-0.105
'26:02.108',-0.275,-0.085
'26:02.111',-0.255,-0.085
'26:02.114',-0.250,-0.090
'26:02.117',-0.265,-0.095
'26:02.119',-0.270,-0.100
'26:02.122',-0.285,-0.090
'26:02.125',-0.260,-0.075
'26:02.128',-0.255,-0.090
'26:02.131',-0.255,-0.085
'26:02.133',-0.250,-0.095
'26:02.136',-0.265,-0.105
'26:02.139',-0.255,-0.095
'26:02.142',-0.260,-0.095
'26:02.144',-0.230,-0.085
'26:02.147',-0.230,-0.090
'26:02.150',-0.240,-0.100
'26:02.153',-0.245,-0.115
'26:02.156',-0.230,-0.105
'26:02.158',-0.230,-0.105
'26:02.161',-0.195,-0.110
'26:02.164',-0.205,-0.110
'26:02.167',-0.205,-0.120
'26:02.169',-0.210,-0.115
'26:02.172',-0.210,-0.125
'26:02.175',-0.195,-0.105
'26:02.178',-0.175,-0.095
'26:02.181',-0.175,-0.095
'26:02.183',-0.170,-0.115
'26:02.186',-0.195,-0.125
'26:02.189',-0.200,-0.130
'26:02.192',-0.190,-0.135
'26:02.194',-0.175,-0.125
'26:02.197',-0.175,-0.145
'26:02.200',-0.190,-0.160
'26:02.203',-0.210,-0.175
'26:02.206',-0.205,-0.165
'26:02.208',-0.195,-0.155
'26:02.211',-0.185,-0.155
'26:02.214',-0.185,-0.160
'26:02.217',-0.165,-0.180
'26:02.219',-0.170,-0.185
'26:02.222',-0.155,-0.190
'26:02.225',-0.140,-0.185
'26:02.228',-0.120,-0.195
'26:02.231',-0.110,-0.215
'26:02.233',-0.105,-0.230
'26:02.236',-0.105,-0.240
'26:02.239',-0.100,-0.240
'26:02.242',-0.090,-0.230
'26:02.244',-0.080,-0.235
'26:02.247',-0.070,-0.250
'26:02.250',-0.070,-0.260
'26:02.253',-0.070,-0.275
'26:02.256',-0.060,-0.260
'26:02.258',-0.050,-0.255
'26:02.261',-0.025,-0.250
'26:02.264',-0.020,-0.245
'26:02.267',-0.015,-0.250
'26:02.269',-0.015,-0.260
'26:02.272',-0.020,-0.240
'26:02.275',-0.020,-0.230
'26:02.278',-0.005,-0.220
'26:02.281',0.000,-0.220
'26:02.283',-0.005,-0.225
'26:02.286',0.000,-0.220
'26:02.289',0.010,-0.215
'26:02.292',0.020,-0.190
'26:02.294',0.030,-0.185
'26:02.297',0.030,-0.190
'26:02.300',0.025,-0.175
'26:02.303',0.015,-0.180
'26:02.306',0.020,-0.170
'26:02.308',0.030,-0.150
'26:02.311',0.030,-0.155
'26:02.314',0.015,-0.150
'26:02.317',0.000,-0.150
'26:02.319',-0.010,-0.145
'26:02.322',-0.010,-0.140
'26:02.325',-0.015,-0.130
'26:02.328',-0.020,-0.135
'26:02.331',-0.035,-0.125
'26:02.333',-0.055,-0.140
'26:02.336',-0.065,-0.135
'26:02.339',-0.075,-0.120
'26:02.342',-0.075,-0.100
'26:02.344',-0.085,-0.100
'26:02.347',-0.100,-0.090
'26:02.350',-0.130,-0.115
'26:02.353',-0.145,-0.110
'26:02.356',-0.145,-0.100
'26:02.358',-0.145,-0.100
'26:02.361',-0.155,-0.085
'26:02.364',-0.175,-0.095
'26:02.367',-0.190,-0.110
'26:02.369',-0.195,-0.105
'26:02.372',-0.200,-0.095
'26:02.375',-0.205,-0.085
'26:02.378',-0.210,-0.105
'26:02.381',-0.200,-0.130
'26:02.383',-0.210,-0.160
'26:02.386',-0.205,-0.185
'26:02.389',-0.220,-0.230
'26:02.392',-0.190,-0.285
'26:02.394',-0.175,-0.375
'26:02.397',-0.180,-0.440
'26:02.400',-0.155,-0.490
'26:02.403',-0.135,-0.515
'26:02.406',-0.080,-0.520
'26:02.408',-0.015,-0.490
'26:02.411',0.045,-0.490
'26:02.414',0.080,-0.475
'26:02.417',0.105,-0.450
'26:02.419',0.135,-0.430
'26:02.422',0.190,-0.385
'26:02.425',0.245,-0.365
'26:02.428',0.280,-0.350
'26:02.431',0.295,-0.310
'26:02.433',0.270,-0.265
'26:02.436',0.215,-0.235
'26:02.439',0.170,-0.195
'26:02.442',0.155,-0.195
'26:02.444',0.155,-0.235
'26:02.447',0.160,-0.300
'26:02.450',0.150,-0.360
'26:02.453',0.160,-0.360
'26:02.456',0.180,-0.335
'26:02.458',0.205,-0.275
'26:02.461',0.235,-0.240
'26:02.464',0.245,-0.225
'26:02.467',0.240,-0.225
'26:02.469',0.230,-0.235
'26:02.472',0.230,-0.230
'26:02.475',0.240,-0.205
'26:02.478',0.255,-0.195
'26:02.481',0.235,-0.200
'26:02.483',0.200,-0.225
'26:02.486',0.140,-0.220
'26:02.489',0.085,-0.235
'26:02.492',0.035,-0.235
'26:02.494',0.000,-0.245
'26:02.497',-0.040,-0.250
'26:02.500',-0.085,-0.250
'26:02.503',-0.125,-0.250
'26:02.506',-0.135,-0.225
'26:02.508',-0.145,-0.180
'26:02.511',-0.160,-0.150
'26:02.514',-0.185,-0.115
'26:02.517',-0.215,-0.095
'26:02.519',-0.250,-0.080
'26:02.522',-0.260,-0.055
'26:02.525',-0.265,-0.030
'26:02.528',-0.255,-0.025
'26:02.531',-0.260,-0.020
'26:02.533',-0.270,-0.010
'26:02.536',-0.290,-0.010
'26:02.539',-0.285,-0.010
'26:02.542',-0.305,0.000
'26:02.544',-0.300,0.005
'26:02.547',-0.295,-0.005
'26:02.550',-0.310,-0.010
'26:02.553',-0.325,-0.010
'26:02.556',-0.315,-0.005
'26:02.558',-0.315,0.005
'26:02.561',-0.305,0.005
'26:02.564',-0.310,0.005
'26:02.567',-0.320,-0.005
'26:02.569',-0.320,-0.015
'26:02.572',-0.320,-0.015
'26:02.575',-0.310,0.000
'26:02.578',-0.310,0.005
'26:02.581',-0.310,-0.015
'26:02.583',-0.310,-0.015
'26:02.586',-0.310,-0.025
'26:02.589',-0.310,-0.030
'26:02.592',-0.305,-0.030
'26:02.594',-0.295,-0.025
'26:02.597',-0.295,-0.025
'26:02.600',-0.290,-0.035
'26:02.603',-0.300,-0.045
'26:02.606',-0.295,-0.050
'26:02.608',-0.290,-0.035
'26:02.611',-0.280,-0.045
'26:02.614',-0.280,-0.050
'26:02.617',-0.280,-0.060
'26:02.619',-0.285,-0.070
'26:02.622',-0.285,-0.070
'26:02.625',-0.275,-0.065
'26:02.628',-0.260,-0.070
'26:02.631',-0.265,-0.070
'26:02.633',-0.260,-0.080
'26:02.636',-0.280,-0.095
'26:02.639',-0.265,-0.090
'26:02.642',-0.260,-0.090
'26:02.644',-0.245,-0.095
'26:02.647',-0.245,-0.095
'26:02.650',-0.255,-0.115
'26:02.653',-0.250,-0.120
'26:02.656',-0.250,-0.130
'26:02.658',-0.245,-0.120
'26:02.661',-0.225,-0.125
'26:02.664',-0.240,-0.135
'26:02.667',-0.230,-0.145
'26:02.669',-0.225,-0.155
'26:02.672',-0.215,-0.160
'26:02.675',-0.195,-0.135
'26:02.678',-0.195,-0.135
'26:02.681',-0.180,-0.135
'26:02.683',-0.185,-0.150
'26:02.686',-0.195,-0.160
'26:02.689',-0.190,-0.160
'26:02.692',-0.175,-0.150
'26:02.694',-0.165,-0.135
'26:02.697',-0.155,-0.135
'26:02.700',-0.135,-0.140
'26:02.703',-0.135,-0.155
'26:02.706',-0.130,-0.140
'26:02.708',-0.120,-0.120
'26:02.711',-0.110,-0.115
'26:02.714',-0.090,-0.105
'26:02.717',-0.085,-0.120
'26:02.719',-0.090,-0.115
'26:02.722',-0.080,-0.095
'26:02.725',-0.075,-0.090
'26:02.728',-0.060,-0.080
'26:02.731',-0.050,-0.070
'26:02.733',-0.050,-0.085
'26:02.736',-0.060,-0.075
'26:02.739',-0.060,-0.080
'26:02.742',-0.055,-0.060
'26:02.744',-0.040,-0.055
'26:02.747',-0.055,-0.035
'26:02.750',-0.060,-0.040
'26:02.753',-0.075,-0.045
'26:02.756',-0.065,-0.040
'26:02.758',-0.070,-0.025
'26:02.761',-0.070,-0.025
'26:02.764',-0.085,-0.025
'26:02.767',-0.105,-0.020
'26:02.769',-0.125,-0.035
'26:02.772',-0.130,-0.025
'26:02.775',-0.135,-0.010
'26:02.778',-0.140,-0.005
'26:02.781',-0.160,-0.010
'26:02.783',-0.180,-0.015
'26:02.786',-0.195,-0.010
'26:02.789',-0.200,-0.015
'26:02.792',-0.195,0.000
'26:02.794',-0.205,0.005
'26:02.797',-0.220,0.005
'26:02.800',-0.220,-0.010
'26:02.803',-0.245,-0.005
'26:02.806',-0.245,-0.005
'26:02.808',-0.240,0.000
'26:02.811',-0.240,0.005
'26:02.814',-0.240,0.005
'26:02.817',-0.250,-0.005
'26:02.819',-0.265,-0.010
'26:02.822',-0.260,0.000
'26:02.825',-0.255,0.005
'26:02.828',-0.260,0.015
'26:02.831',-0.270,0.000
'26:02.833',-0.270,-0.010
'26:02.836',-0.280,-0.010
'26:02.839',-0.270,-0.005
'26:02.842',-0.270,0.000
'26:02.844',-0.270,-0.005
'26:02.847',-0.265,-0.010
'26:02.850',-0.285,0.000
'26:02.853',-0.285,-0.005
'26:02.856',-0.275,0.005
'26:02.858',-0.270,0.015
'26:02.861',-0.265,0.005
'26:02.864',-0.260,-0.005
'26:02.867',-0.285,-0.015
'26:02.869',-0.280,-0.005
'26:02.872',-0.280,-0.005
'26:02.875',-0.270,0.010
'26:02.878',-0.260,0.010
'26:02.881',-0.270,0.005
'26:02.883',-0.280,-0.010
'26:02.886',-0.285,-0.015
'26:02.889',-0.285,0.005
'26:02.892',-0.275,0.010
'26:02.894',-0.275,0.005
'26:02.897',-0.270,0.010
'26:02.900',-0.290,-0.010
'26:02.903',-0.295,-0.005
'26:02.906',-0.290,0.000
'26:02.908',-0.285,0.010
'26:02.911',-0.280,0.010
'26:02.914',-0.285,0.005
'26:02.917',-0.280,-0.005
'26:02.919',-0.295,-0.005
'26:02.922',-0.285,0.010
'26:02.925',-0.275,0.010
'26:02.928',-0.270,0.010
'26:02.931',-0.280,0.000
'26:02.933',-0.285,-0.005
'26:02.936',-0.290,-0.015
'26:02.939',-0.290,-0.005
'26:02.942',-0.285,0.005
'26:02.944',-0.270,0.005
'26:02.947',-0.275,0.000
'26:02.950',-0.295,-0.005
'26:02.953',-0.300,-0.005
'26:02.956',-0.300,-0.005
'26:02.958',-0.285,0.000
'26:02.961',-0.280,0.005
'26:02.964',-0.290,0.005
'26:02.967',-0.285,-0.005
'26:02.969',-0.295,-0.015
'26:02.972',-0.300,-0.005
'26:02.975',-0.300,0.010
'26:02.978',-0.285,0.005
'26:02.981',-0.280,0.000
'26:02.983',-0.295,0.000
'26:02.986',-0.295,-0.015
'26:02.989',-0.300,-0.005
'26:02.992',-0.295,0.005
'26:02.994',-0.290,0.010
'26:02.997',-0.285,-0.005
'26:03.000',-0.290,-0.015
'26:03.003',-0.300,-0.015
'26:03.006',-0.305,-0.015
'26:03.008',-0.290,0.000
'26:03.011',-0.285,0.000
'26:03.014',-0.275,0.000
'26:03.017',-0.285,-0.010
'26:03.019',-0.295,-0.020
'26:03.022',-0.295,-0.010
'26:03.025',-0.295,0.000
'26:03.028',-0.280,0.000
'26:03.031',-0.285,0.000
'26:03.033',-0.285,-0.010
'26:03.036',-0.295,-0.015
'26:03.039',-0.295,-0.005
'26:03.042',-0.290,0.000
'26:03.044',-0.290,0.005
'26:03.047',-0.285,0.000
'26:03.050',-0.290,-0.005
'26:03.053',-0.295,-0.010
'26:03.056',-0.295,0.000
'26:03.058',-0.295,0.000
'26:03.061',-0.285,0.005
'26:03.064',-0.290,-0.005
'26:03.067',-0.285,-0.015
'26:03.069',-0.300,-0.005
'26:03.072',-0.295,-0.005
'26:03.075',-0.290,0.005
'26:03.078',-0.280,0.000
'26:03.081',-0.285,-0.005
'26:03.083',-0.290,-0.005
'26:03.086',-0.295,-0.015
'26:03.089',-0.285,-0.005
'26:03.092',-0.275,0.000
'26:03.094',-0.280,0.005
'26:03.097',-0.280,-0.005
'26:03.100',-0.300,-0.015
'26:03.103',-0.295,-0.020
'26:03.106',-0.290,-0.005
'26:03.108',-0.280,0.000
'26:03.111',-0.280,-0.010
'26:03.114',-0.290,-0.015
'26:03.117',-0.285,-0.005
'26:03.119',-0.300,-0.010
'26:03.122',-0.285,-0.015
'26:03.125',-0.280,0.000
'26:03.128',-0.280,0.000
'26:03.131',-0.285,-0.005
'26:03.133',-0.280,-0.020
'26:03.136',-0.295,-0.015
'26:03.139',-0.285,0.000
'26:03.142',-0.290,0.005
'26:03.144',-0.285,0.000
'26:03.147',-0.290,0.000
'26:03.150',-0.300,-0.015
'26:03.153',-0.300,-0.010
'26:03.156',-0.295,0.000
'26:03.158',-0.280,-0.005
'26:03.161',-0.270,-0.010
'26:03.164',-0.270,-0.005
'26:03.167',-0.275,-0.020
'26:03.169',-0.290,-0.015
'26:03.172',-0.285,-0.010
'26:03.175',-0.285,0.000
'26:03.178',-0.275,-0.005
'26:03.181',-0.270,-0.010
'26:03.183',-0.280,-0.020
'26:03.186',-0.290,-0.020
'26:03.189',-0.285,-0.010
'26:03.192',-0.285,0.000
'26:03.194',-0.275,0.000
'26:03.197',-0.280,0.000
'26:03.200',-0.285,-0.010
'26:03.203',-0.290,-0.015
'26:03.206',-0.290,-0.005
'26:03.208',-0.275,-0.005
'26:03.211',-0.265,0.000
'26:03.214',-0.270,-0.005
'26:03.217',-0.280,-0.020
'26:03.219',-0.285,-0.020
'26:03.222',-0.275,-0.010
'26:03.225',-0.265,0.000
'26:03.228',-0.255,-0.005
'26:03.231',-0.260,-0.015
'26:03.233',-0.265,-0.025
'26:03.236',-0.275,-0.025
'26:03.239',-0.260,-0.020
'26:03.242',-0.265,-0.005
'26:03.244',-0.260,0.000
'26:03.247',-0.260,-0.005
'26:03.250',-0.260,-0.015
'26:03.253',-0.280,-0.025
'26:03.256',-0.275,-0.010
'26:03.258',-0.265,-0.005
'26:03.261',-0.260,-0.005
'26:03.264',-0.255,-0.010
'26:03.267',-0.275,-0.035
'26:03.269',-0.270,-0.025
'26:03.272',-0.270,-0.015
'26:03.275',-0.270,-0.010
'26:03.278',-0.265,-0.020
'26:03.281',-0.265,-0.025
'26:03.283',-0.270,-0.030
'26:03.286',-0.275,-0.035
'26:03.289',-0.275,-0.020
'26:03.292',-0.270,-0.015
'26:03.294',-0.260,-0.010
'26:03.297',-0.250,-0.020
'26:03.300',-0.250,-0.030
'26:03.303',-0.260,-0.030
'26:03.306',-0.260,-0.035
'26:03.308',-0.265,-0.020
'26:03.311',-0.250,-0.010
'26:03.314',-0.260,-0.015
'26:03.317',-0.260,-0.035
'26:03.319',-0.260,-0.030
'26:03.322',-0.270,-0.030
'26:03.325',-0.265,-0.025
'26:03.328',-0.255,-0.015
'26:03.331',-0.250,-0.015
'26:03.333',-0.255,-0.020
'26:03.336',-0.265,-0.035
'26:03.339',-0.255,-0.020
'26:03.342',-0.260,-0.010
'26:03.344',-0.250,-0.015
'26:03.347',-0.245,-0.015
'26:03.350',-0.255,-0.025
'26:03.353',-0.265,-0.025
'26:03.356',-0.260,-0.025
'26:03.358',-0.250,-0.020
'26:03.361',-0.240,-0.025
'26:03.364',-0.245,-0.020
'26:03.367',-0.250,-0.025
'26:03.369',-0.265,-0.030
'26:03.372',-0.255,-0.020
'26:03.375',-0.245,-0.020
'26:03.378',-0.245,-0.020
'26:03.381',-0.245,-0.030
'26:03.383',-0.250,-0.040
'26:03.386',-0.265,-0.030
'26:03.389',-0.260,-0.030
'26:03.392',-0.245,-0.015
'26:03.394',-0.240,-0.015
'26:03.397',-0.240,-0.040
'26:03.400',-0.245,-0.035
'26:03.403',-0.255,-0.035
'26:03.406',-0.250,-0.030
'26:03.408',-0.260,-0.010
'26:03.411',-0.245,-0.015
'26:03.414',-0.235,-0.010
'26:03.417',-0.250,-0.020
'26:03.419',-0.265,-0.020
'26:03.422',-0.245,-0.005
'26:03.425',-0.235,-0.005
'26:03.428',-0.230,0.000
'26:03.431',-0.230,0.015
'26:03.433',-0.225,0.000
'26:03.436',-0.225,0.015
'26:03.439',-0.215,0.010
'26:03.442',-0.195,0.025
'26:03.444',-0.180,0.025
'26:03.447',-0.175,0.005
'26:03.450',-0.185,-0.005
'26:03.453',-0.175,-0.005
'26:03.456',-0.175,0.000
'26:03.458',-0.160,0.005
'26:03.461',-0.140,0.000
'26:03.464',-0.140,-0.005
'26:03.467',-0.155,-0.020
'26:03.469',-0.170,-0.035
'26:03.472',-0.175,-0.025
'26:03.475',-0.150,-0.020
'26:03.478',-0.130,-0.020
'26:03.481',-0.125,-0.040
'26:03.483',-0.125,-0.065
'26:03.486',-0.135,-0.065
'26:03.489',-0.140,-0.055
'26:03.492',-0.150,-0.045
'26:03.494',-0.145,-0.050
'26:03.497',-0.145,-0.055
'26:03.500',-0.170,-0.060
'26:03.503',-0.175,-0.055
'26:03.506',-0.165,-0.065
'26:03.508',-0.165,-0.045
'26:03.511',-0.165,-0.050
'26:03.514',-0.165,-0.035
'26:03.517',-0.180,-0.030
'26:03.519',-0.200,-0.025
'26:03.522',-0.195,-0.025
'26:03.525',-0.205,-0.020
'26:03.528',-0.205,-0.030
'26:03.531',-0.215,-0.025
'26:03.533',-0.235,-0.045
'26:03.536',-0.240,-0.045
'26:03.539',-0.250,-0.030
'26:03.542',-0.250,-0.025
'26:03.544',-0.245,-0.025
'26:03.547',-0.245,-0.025
'26:03.550',-0.250,-0.035
'26:03.553',-0.265,-0.045
'26:03.556',-0.265,-0.030
'26:03.558',-0.270,-0.030
'26:03.561',-0.255,-0.025
'26:03.564',-0.255,-0.030
'26:03.567',-0.255,-0.050
'26:03.569',-0.260,-0.040
'26:03.572',-0.260,-0.030
'26:03.575',-0.255,-0.030
'26:03.578',-0.255,-0.025
'26:03.581',-0.255,-0.035
'26:03.583',-0.260,-0.040
'26:03.586',-0.270,-0.045
'26:03.589',-0.275,-0.035
'26:03.592',-0.265,-0.030
'26:03.594',-0.255,-0.040
'26:03.597',-0.255,-0.025
'26:03.600',-0.265,-0.045
'26:03.603',-0.270,-0.040
'26:03.606',-0.270,-0.050
'26:03.608',-0.260,-0.030
'26:03.611',-0.255,-0.030
'26:03.614',-0.255,-0.025
'26:03.617',-0.255,-0.035
'26:03.619',-0.265,-0.020
'26:03.622',-0.255,0.000
'26:03.625',-0.245,0.020
'26:03.628',-0.235,0.035
'26:03.631',-0.220,0.030
'26:03.633',-0.205,-0.010
'26:03.636',-0.185,-0.080
'26:03.639',-0.155,-0.160
'26:03.642',-0.135,-0.220
'26:03.644',-0.090,-0.315
'26:03.647',-0.045,-0.430
'26:03.650',0.035,-0.550
'26:03.653',0.115,-0.695
'26:03.656',0.210,-0.820
'26:03.658',0.315,-0.930
'26:03.661',0.430,-0.980
'26:03.664',0.530,-0.970
'26:03.667',0.600,-0.930
'26:03.669',0.665,-0.860
'26:03.672',0.750,-0.745
'26:03.675',0.840,-0.605
'26:03.678',0.855,-0.465
'26:03.681',0.785,-0.355
'26:03.683',0.665,-0.295
'26:03.686',0.505,-0.230
'26:03.689',0.325,-0.185
'26:03.692',0.160,-0.175
'26:03.694',0.040,-0.180
'26:03.697',-0.075,-0.155
'26:03.700',-0.150,-0.135
'26:03.703',-0.205,-0.110
'26:03.706',-0.210,-0.085
'26:03.708',-0.195,-0.050
'26:03.711',-0.190,-0.035
'26:03.714',-0.195,-0.035
'26:03.717',-0.200,-0.035
'26:03.719',-0.210,-0.025
'26:03.722',-0.220,-0.015
'26:03.725',-0.235,-0.010
'26:03.728',-0.235,0.000
'26:03.731',-0.250,-0.005
'26:03.733',-0.255,-0.005
'26:03.736',-0.265,-0.005
'26:03.739',-0.265,0.005
'26:03.742',-0.260,0.005
'26:03.744',-0.260,0.010
'26:03.747',-0.265,0.015
'26:03.750',-0.265,0.005
'26:03.753',-0.285,0.005
'26:03.756',-0.275,0.010
'26:03.758',-0.275,0.015
'26:03.761',-0.275,0.015
'26:03.764',-0.270,0.010
'26:03.767',-0.280,0.015
'26:03.769',-0.295,0.000
'26:03.772',-0.295,0.000
'26:03.775',-0.285,0.010
'26:03.778',-0.270,0.005
'26:03.781',-0.275,0.005
'26:03.783',-0.280,-0.005
'26:03.786',-0.285,0.000
'26:03.789',-0.285,0.005
'26:03.792',-0.275,0.005
'26:03.794',-0.275,-0.005
'26:03.797',-0.280,0.000
'26:03.800',-0.275,-0.010
'26:03.803',-0.280,-0.010
'26:03.806',-0.280,-0.010
'26:03.808',-0.255,0.000
'26:03.811',-0.255,-0.010
'26:03.814',-0.255,-0.010
'26:03.817',-0.255,-0.030
'26:03.819',-0.255,-0.035
'26:03.822',-0.250,-0.020
'26:03.825',-0.245,-0.010
'26:03.828',-0.240,-0.025
'26:03.831',-0.240,-0.020
'26:03.833',-0.250,-0.035
'26:03.836',-0.250,-0.045
'26:03.839',-0.240,-0.045
'26:03.842',-0.235,-0.040
'26:03.844',-0.215,-0.045
'26:03.847',-0.215,-0.045
'26:03.850',-0.220,-0.060
'26:03.853',-0.230,-0.060
'26:03.856',-0.220,-0.065
'26:03.858',-0.215,-0.055
'26:03.861',-0.200,-0.070
'26:03.864',-0.195,-0.080
'26:03.867',-0.200,-0.095
'26:03.869',-0.195,-0.095
'26:03.872',-0.185,-0.085
'26:03.875',-0.180,-0.090
'26:03.878',-0.165,-0.110
'26:03.881',-0.175,-0.115
'26:03.883',-0.180,-0.110
'26:03.886',-0.180,-0.135
'26:03.889',-0.165,-0.130
'26:03.892',-0.155,-0.125
'26:03.894',-0.145,-0.140
'26:03.897',-0.145,-0.145
'26:03.900',-0.145,-0.155
'26:03.903',-0.145,-0.160
'26:03.906',-0.125,-0.155
'26:03.908',-0.125,-0.165
'26:03.911',-0.110,-0.165
'26:03.914',-0.095,-0.160
'26:03.917',-0.110,-0.180
'26:03.919',-0.100,-0.195
'26:03.922',-0.085,-0.185
'26:03.925',-0.075,-0.190
'26:03.928',-0.070,-0.200
'26:03.931',-0.065,-0.205
'26:03.933',-0.065,-0.210
'26:03.936',-0.065,-0.210
'26:03.939',-0.050,-0.210
'26:03.942',-0.040,-0.200
'26:03.944',-0.025,-0.200
'26:03.947',-0.025,-0.205
'26:03.950',-0.025,-0.205
'26:03.953',-0.020,-0.210
'26:03.956',-0.005,-0.200
'26:03.958',0.000,-0.190
'26:03.961',0.020,-0.180
'26:03.964',0.005,-0.180
'26:03.967',0.010,-0.180
'26:03.969',-0.005,-0.170
'26:03.972',0.000,-0.160
'26:03.975',0.000,-0.150
'26:03.978',0.005,-0.140
'26:03.981',-0.005,-0.140
'26:03.983',-0.030,-0.140
'26:03.986',-0.040,-0.120
'26:03.989',-0.035,-0.105
'26:03.992',-0.050,-0.100
'26:03.994',-0.050,-0.090
'26:03.997',-0.070,-0.100
'26:04.000',-0.090,-0.105
'26:04.003',-0.095,-0.095
'26:04.006',-0.100,-0.080
'26:04.008',-0.110,-0.060
'26:04.011',-0.120,-0.070
'26:04.014',-0.130,-0.070
'26:04.017',-0.145,-0.070
'26:04.019',-0.165,-0.080
'26:04.022',-0.160,-0.070
'26:04.025',-0.180,-0.055
'26:04.028',-0.160,-0.060
'26:04.031',-0.175,-0.060
'26:04.033',-0.190,-0.065
'26:04.036',-0.200,-0.070
'26:04.039',-0.210,-0.055
'26:04.042',-0.190,-0.045
'26:04.044',-0.185,-0.050
'26:04.047',-0.190,-0.045
'26:04.050',-0.205,-0.045
'26:04.053',-0.220,-0.050
'26:04.056',-0.215,-0.050
'26:04.058',-0.200,-0.035
'26:04.061',-0.200,-0.040
'26:04.064',-0.200,-0.030
'26:04.067',-0.220,-0.040
'26:04.069',-0.225,-0.050
'26:04.072',-0.215,-0.040
'26:04.075',-0.210,-0.035
'26:04.078',-0.210,-0.035
'26:04.081',-0.215,-0.035
'26:04.083',-0.210,-0.035
'26:04.086',-0.215,-0.040
'26:04.089',-0.215,-0.035
'26:04.092',-0.205,-0.030
'26:04.094',-0.200,-0.030
'26:04.097',-0.210,-0.030
'26:04.100',-0.215,-0.045
'26:04.103',-0.225,-0.040
'26:04.106',-0.220,-0.035
'26:04.108',-0.205,-0.020
'26:04.111',-0.200,-0.025
'26:04.114',-0.195,-0.030
'26:04.117',-0.205,-0.030
'26:04.119',-0.220,-0.025
'26:04.122',-0.210,-0.020
'26:04.125',-0.210,-0.025
'26:04.128',-0.210,-0.015
'26:04.131',-0.215,-0.020
'26:04.133',-0.215,-0.030
'26:04.136',-0.220,-0.030
'26:04.139',-0.220,-0.015
'26:04.142',-0.215,-0.005
'26:04.144',-0.200,-0.015
'26:04.147',-0.205,-0.020
'26:04.150',-0.215,-0.025
'26:04.153',-0.235,-0.020
'26:04.156',-0.225,-0.020
'26:04.158',-0.225,-0.015
'26:04.161',-0.210,-0.015
'26:04.164',-0.210,-0.010
'26:04.167',-0.225,-0.025
'26:04.169',-0.235,-0.015
'26:04.172',-0.230,-0.020
'26:04.175',-0.225,-0.010
'26:04.178',-0.220,-0.010
'26:04.181',-0.225,-0.015
'26:04.183',-0.240,-0.025
'26:04.186',-0.245,-0.030
'26:04.189',-0.245,-0.020
'26:04.192',-0.245,-0.005
'26:04.194',-0.225,-0.015
'26:04.197',-0.225,-0.020
'26:04.200',-0.240,-0.030
'26:04.203',-0.250,-0.025
'26:04.206',-0.260,-0.020
'26:04.208',-0.250,-0.010
'26:04.211',-0.235,-0.010
'26:04.214',-0.235,-0.020
'26:04.217',-0.255,-0.020
'26:04.219',-0.265,-0.025
'26:04.222',-0.255,-0.015
'26:04.225',-0.250,-0.015
'26:04.228',-0.235,-0.015
'26:04.231',-0.250,-0.030
'26:04.233',-0.255,-0.040
'26:04.236',-0.270,-0.035
'26:04.239',-0.270,-0.035
'26:04.242',-0.265,-0.020
'26:04.244',-0.245,-0.020
'26:04.247',-0.250,-0.020
'26:04.250',-0.270,-0.030
'26:04.253',-0.270,-0.030
'26:04.256',-0.275,-0.025
'26:04.258',-0.270,-0.015
'26:04.261',-0.250,-0.010
'26:04.264',-0.260,-0.020
'26:04.267',-0.260,-0.035
'26:04.269',-0.280,-0.040
'26:04.272',-0.270,-0.030
'26:04.275',-0.275,-0.025
'26:04.278',-0.270,-0.015
'26:04.281',-0.270,-0.025
'26:04.283',-0.275,-0.035
'26:04.286',-0.285,-0.035
'26:04.289',-0.285,-0.020
'26:04.292',-0.275,-0.015
'26:04.294',-0.275,-0.020
'26:04.297',-0.270,-0.030
'26:04.300',-0.275,-0.025
'26:04.303',-0.280,-0.030
'26:04.306',-0.285,-0.025
'26:04.308',-0.280,-0.020
'26:04.311',-0.270,-0.020
'26:04.314',-0.275,-0.020
'26:04.317',-0.280,-0.030
'26:04.319',-0.290,-0.030
'26:04.322',-0.280,-0.020
'26:04.325',-0.275,-0.025
'26:04.328',-0.265,-0.025
'26:04.331',-0.280,-0.025
'26:04.333',-0.275,-0.040
'26:04.336',-0.275,-0.035
'26:04.339',-0.270,-0.040
'26:04.342',-0.265,-0.020
'26:04.344',-0.270,-0.030
'26:04.347',-0.270,-0.020
'26:04.350',-0.275,-0.030
'26:04.353',-0.280,-0.030
'26:04.356',-0.280,-0.040
'26:04.358',-0.280,-0.020
'26:04.361',-0.275,-0.025
'26:04.364',-0.270,-0.035
'26:04.367',-0.275,-0.040
'26:04.369',-0.290,-0.050
'26:04.372',-0.280,-0.035
'26:04.375',-0.275,-0.035
'26:04.378',-0.270,-0.035
'26:04.381',-0.280,-0.030
'26:04.383',-0.285,-0.045
'26:04.386',-0.290,-0.045
'26:04.389',-0.285,-0.030
'26:04.392',-0.275,-0.035
'26:04.394',-0.260,-0.030
'26:04.397',-0.265,-0.035
'26:04.400',-0.285,-0.045
'26:04.403',-0.290,-0.045
'26:04.406',-0.290,-0.030
'26:04.408',-0.285,-0.030
'26:04.411',-0.280,-0.030
'26:04.414',-0.275,-0.030
'26:04.417',-0.290,-0.035
'26:04.419',-0.290,-0.045
'26:04.422',-0.285,-0.035
'26:04.425',-0.285,-0.030
'26:04.428',-0.275,-0.040
'26:04.431',-0.285,-0.035
'26:04.433',-0.285,-0.045
'26:04.436',-0.295,-0.045
'26:04.439',-0.290,-0.035
'26:04.442',-0.285,-0.020
'26:04.444',-0.275,-0.035
'26:04.447',-0.285,-0.035
'26:04.450',-0.290,-0.050
'26:04.453',-0.300,-0.045
'26:04.456',-0.295,-0.035
'26:04.458',-0.290,-0.035
'26:04.461',-0.280,-0.040
'26:04.464',-0.280,-0.050
'26:04.467',-0.285,-0.050
'26:04.469',-0.295,-0.060
'26:04.472',-0.285,-0.040
'26:04.475',-0.280,-0.025
'26:04.478',-0.275,-0.040
'26:04.481',-0.280,-0.045
'26:04.483',-0.285,-0.050
'26:04.486',-0.285,-0.040
'26:04.489',-0.285,-0.040
'26:04.492',-0.275,-0.030
'26:04.494',-0.270,-0.030
'26:04.497',-0.275,-0.040
'26:04.500',-0.285,-0.050
'26:04.503',-0.285,-0.060
'26:04.506',-0.275,-0.045
'26:04.508',-0.275,-0.035
'26:04.511',-0.270,-0.045
'26:04.514',-0.270,-0.035
'26:04.517',-0.280,-0.050
'26:04.519',-0.290,-0.045
'26:04.522',-0.280,-0.045
'26:04.525',-0.275,-0.030
'26:04.528',-0.270,-0.030
'26:04.531',-0.275,-0.045
'26:04.533',-0.280,-0.045
'26:04.536',-0.305,-0.045
'26:04.539',-0.295,-0.040
'26:04.542',-0.280,-0.020
'26:04.544',-0.275,-0.040
'26:04.547',-0.280,-0.040
'26:04.550',-0.285,-0.050
'26:04.553',-0.295,-0.050
'26:04.556',-0.280,-0.040
'26:04.558',-0.275,-0.040
'26:04.561',-0.270,-0.045
'26:04.564',-0.270,-0.040
'26:04.567',-0.285,-0.060
'26:04.569',-0.290,-0.045
'26:04.572',-0.290,-0.045
'26:04.575',-0.280,-0.035
'26:04.578',-0.280,-0.055
'26:04.581',-0.275,-0.055
'26:04.583',-0.280,-0.060
'26:04.586',-0.280,-0.055
'26:04.589',-0.280,-0.060
'26:04.592',-0.275,-0.055
'26:04.594',-0.270,-0.060
'26:04.597',-0.270,-0.060
'26:04.600',-0.275,-0.075
'26:04.603',-0.270,-0.065
'26:04.606',-0.280,-0.055
'26:04.608',-0.270,-0.055
'26:04.611',-0.270,-0.050
'26:04.614',-0.275,-0.060
'26:04.617',-0.280,-0.060
'26:04.619',-0.285,-0.065
'26:04.622',-0.285,-0.065
'26:04.625',-0.275,-0.050
'26:04.628',-0.265,-0.055
'26:04.631',-0.260,-0.045
'26:04.633',-0.270,-0.065
'26:04.636',-0.275,-0.070
'26:04.639',-0.275,-0.060
'26:04.642',-0.270,-0.055
'26:04.644',-0.260,-0.050
'26:04.647',-0.260,-0.060
'26:04.650',-0.270,-0.065
'26:04.653',-0.275,-0.060
'26:04.656',-0.265,-0.055
'26:04.658',-0.265,-0.045
'26:04.661',-0.255,-0.050
'26:04.664',-0.255,-0.050
'26:04.667',-0.275,-0.060
'26:04.669',-0.280,-0.075
'26:04.672',-0.265,-0.070
'26:04.675',-0.280,-0.045
'26:04.678',-0.265,-0.060
'26:04.681',-0.270,-0.065
'26:04.683',-0.265,-0.065
'26:04.686',-0.270,-0.060
'26:04.689',-0.270,-0.055
'26:04.692',-0.260,-0.055
'26:04.694',-0.265,-0.045
'26:04.697',-0.260,-0.050
'26:04.700',-0.270,-0.060
'26:04.703',-0.270,-0.060
'26:04.706',-0.265,-0.045
'26:04.708',-0.260,-0.035
'26:04.711',-0.245,-0.045
'26:04.714',-0.255,-0.035
'26:04.717',-0.250,-0.040
'26:04.719',-0.260,-0.040
'26:04.722',-0.255,-0.015
'26:04.725',-0.240,-0.010
'26:04.728',-0.225,-0.005
'26:04.731',-0.215,-0.015
'26:04.733',-0.210,-0.030
'26:04.736',-0.210,-0.030
'26:04.739',-0.200,-0.020
'26:04.742',-0.195,-0.010
'26:04.744',-0.175,-0.025
'26:04.747',-0.155,-0.025
'26:04.750',-0.170,-0.035
'26:04.753',-0.170,-0.045
'26:04.756',-0.180,-0.045
'26:04.758',-0.175,-0.055
'26:04.761',-0.150,-0.055
'26:04.764',-0.145,-0.070
'26:04.767',-0.145,-0.075
'26:04.769',-0.145,-0.085
'26:04.772',-0.165,-0.080
'26:04.775',-0.165,-0.080
'26:04.778',-0.175,-0.075
'26:04.781',-0.175,-0.080
'26:04.783',-0.185,-0.095
'26:04.786',-0.195,-0.095
'26:04.789',-0.205,-0.085
'26:04.792',-0.195,-0.045
'26:04.794',-0.195,-0.040
'26:04.797',-0.210,-0.050
'26:04.800',-0.230,-0.055
'26:04.803',-0.250,-0.070
'26:04.806',-0.255,-0.065
'26:04.808',-0.255,-0.050
'26:04.811',-0.255,-0.045
'26:04.814',-0.260,-0.060
'26:04.817',-0.280,-0.065
'26:04.819',-0.300,-0.070
'26:04.822',-0.290,-0.055
'26:04.825',-0.285,-0.045
'26:04.828',-0.270,-0.050
'26:04.831',-0.275,-0.060
'26:04.833',-0.280,-0.065
'26:04.836',-0.295,-0.070
'26:04.839',-0.285,-0.060
'26:04.842',-0.270,-0.055
'26:04.844',-0.270,-0.040
'26:04.847',-0.270,-0.070
'26:04.850',-0.285,-0.065
'26:04.853',-0.290,-0.065
'26:04.856',-0.280,-0.060
'26:04.858',-0.280,-0.050
'26:04.861',-0.265,-0.060
'26:04.864',-0.270,-0.055
'26:04.867',-0.275,-0.070
'26:04.869',-0.275,-0.070
'26:04.872',-0.270,-0.065
'26:04.875',-0.265,-0.045
'26:04.878',-0.250,-0.055
'26:04.881',-0.255,-0.070
'26:04.883',-0.265,-0.075
'26:04.886',-0.265,-0.055
'26:04.889',-0.260,-0.035
'26:04.892',-0.255,-0.005
'26:04.894',-0.250,0.005
'26:04.897',-0.240,0.015
'26:04.900',-0.240,0.000
'26:04.903',-0.225,-0.035
'26:04.906',-0.195,-0.100
'26:04.908',-0.165,-0.200
'26:04.911',-0.145,-0.305
'26:04.914',-0.110,-0.420
'26:04.917',-0.055,-0.550
'26:04.919',0.030,-0.675
'26:04.922',0.150,-0.815
'26:04.925',0.275,-0.905
'26:04.928',0.395,-0.960
'26:04.931',0.505,-0.935
'26:04.933',0.585,-0.865
'26:04.936',0.670,-0.760
'26:04.939',0.795,-0.630
'26:04.942',0.895,-0.480
'26:04.944',0.900,-0.360
'26:04.947',0.785,-0.245
'26:04.950',0.600,-0.180
'26:04.953',0.355,-0.115
'26:04.956',0.145,-0.080
'26:04.958',-0.020,-0.095
'26:04.961',-0.135,-0.130
'26:04.964',-0.220,-0.155
'26:04.967',-0.275,-0.145
'26:04.969',-0.290,-0.130
'26:04.972',-0.260,-0.095
'26:04.975',-0.225,-0.070
'26:04.978',-0.205,-0.060
'26:04.981',-0.205,-0.060
'26:04.983',-0.205,-0.065
'26:04.986',-0.230,-0.065
'26:04.989',-0.240,-0.050
'26:04.992',-0.240,-0.035
'26:04.994',-0.240,-0.040
'26:04.997',-0.255,-0.040
'26:05.000',-0.250,-0.040
'26:05.003',-0.265,-0.050
'26:05.006',-0.265,-0.035
'26:05.008',-0.270,-0.020
'26:05.011',-0.260,-0.030
'26:05.014',-0.265,-0.035
'26:05.017',-0.280,-0.035
'26:05.019',-0.290,-0.045
'26:05.022',-0.280,-0.035
'26:05.025',-0.275,-0.035
'26:05.028',-0.255,-0.035
'26:05.031',-0.270,-0.035
'26:05.033',-0.265,-0.045
'26:05.036',-0.270,-0.045
'26:05.039',-0.270,-0.040
'26:05.042',-0.275,-0.015
'26:05.044',-0.270,-0.030
'26:05.047',-0.265,-0.035
'26:05.050',-0.255,-0.045
'26:05.053',-0.265,-0.045
'26:05.056',-0.270,-0.045
'26:05.058',-0.265,-0.035
'26:05.061',-0.255,-0.035
'26:05.064',-0.260,-0.050
'26:05.067',-0.265,-0.055
'26:05.069',-0.270,-0.060
'26:05.072',-0.260,-0.060
'26:05.075',-0.250,-0.045
'26:05.078',-0.240,-0.045
'26:05.081',-0.235,-0.055
'26:05.083',-0.235,-0.060
'26:05.086',-0.255,-0.075
'26:05.089',-0.245,-0.065
'26:05.092',-0.245,-0.055
'26:05.094',-0.230,-0.060
'26:05.097',-0.235,-0.075
'26:05.100',-0.235,-0.070
'26:05.103',-0.245,-0.075
'26:05.106',-0.235,-0.070
'26:05.108',-0.230,-0.070
'26:05.111',-0.220,-0.085
'26:05.114',-0.210,-0.085
'26:05.117',-0.210,-0.095
'26:05.119',-0.215,-0.100
'26:05.122',-0.215,-0.095
'26:05.125',-0.200,-0.085
'26:05.128',-0.195,-0.085
'26:05.131',-0.190,-0.095
'26:05.133',-0.190,-0.115
'26:05.136',-0.195,-0.125
'26:05.139',-0.180,-0.120
'26:05.142',-0.175,-0.115
'26:05.144',-0.155,-0.105
'26:05.147',-0.150,-0.105
'26:05.150',-0.140,-0.110
'26:05.153',-0.125,-0.110
'26:05.156',-0.105,-0.105
'26:05.158',-0.075,-0.095
'26:05.161',-0.065,-0.110
'26:05.164',-0.050,-0.125
'26:05.167',-0.050,-0.145
'26:05.169',-0.050,-0.150
'26:05.172',-0.045,-0.155
'26:05.175',-0.045,-0.140
'26:05.178',-0.025,-0.150
'26:05.181',-0.035,-0.165
'26:05.183',-0.050,-0.165
'26:05.186',-0.085,-0.155
'26:05.189',-0.070,-0.145
'26:05.192',-0.070,-0.125
'26:05.194',-0.060,-0.115
'26:05.197',-0.075,-0.105
'26:05.200',-0.090,-0.130
'26:05.203',-0.100,-0.115
'26:05.206',-0.095,-0.105
'26:05.208',-0.080,-0.090
'26:05.211',-0.065,-0.085
'26:05.214',-0.050,-0.080
'26:05.217',-0.050,-0.090
'26:05.219',-0.055,-0.095
'26:05.222',-0.070,-0.090
'26:05.225',-0.050,-0.080
'26:05.228',-0.055,-0.085
'26:05.231',-0.075,-0.090
'26:05.233',-0.085,-0.105
'26:05.236',-0.105,-0.115
'26:05.239',-0.105,-0.105
'26:05.242',-0.100,-0.095
'26:05.244',-0.110,-0.100
'26:05.247',-0.130,-0.125
'26:05.250',-0.150,-0.120
'26:05.253',-0.170,-0.135
'26:05.256',-0.170,-0.125
'26:05.258',-0.180,-0.115
'26:05.261',-0.185,-0.110
'26:05.264',-0.195,-0.115
'26:05.267',-0.200,-0.125
'26:05.269',-0.220,-0.115
'26:05.272',-0.225,-0.105
'26:05.275',-0.230,-0.090
'26:05.278',-0.220,-0.110
'26:05.281',-0.235,-0.110
'26:05.283',-0.250,-0.110
'26:05.286',-0.250,-0.115
'26:05.289',-0.255,-0.110
'26:05.292',-0.235,-0.100
'26:05.294',-0.230,-0.100
'26:05.297',-0.230,-0.110
'26:05.300',-0.235,-0.115
'26:05.303',-0.250,-0.110
'26:05.306',-0.250,-0.095
'26:05.308',-0.250,-0.085
'26:05.311',-0.235,-0.090
'26:05.314',-0.235,-0.090
'26:05.317',-0.240,-0.095
'26:05.319',-0.245,-0.090
'26:05.322',-0.240,-0.095
'26:05.325',-0.230,-0.080
'26:05.328',-0.235,-0.095
'26:05.331',-0.230,-0.100
'26:05.333',-0.240,-0.095
'26:05.336',-0.245,-0.095
'26:05.339',-0.230,-0.090
'26:05.342',-0.225,-0.080
'26:05.344',-0.220,-0.080
'26:05.347',-0.220,-0.085
'26:05.350',-0.225,-0.095
'26:05.353',-0.230,-0.105
'26:05.356',-0.230,-0.085
'26:05.358',-0.230,-0.075
'26:05.361',-0.220,-0.085
'26:05.364',-0.215,-0.080
'26:05.367',-0.220,-0.095
'26:05.369',-0.225,-0.080
'26:05.372',-0.225,-0.085
'26:05.375',-0.225,-0.075
'26:05.378',-0.220,-0.080
'26:05.381',-0.225,-0.085
'26:05.383',-0.230,-0.100
'26:05.386',-0.240,-0.085
'26:05.389',-0.230,-0.085
'26:05.392',-0.225,-0.090
'26:05.394',-0.210,-0.110
'26:05.397',-0.220,-0.130
'26:05.400',-0.220,-0.165
'26:05.403',-0.220,-0.210
'26:05.406',-0.205,-0.300
'26:05.408',-0.185,-0.395
'26:05.411',-0.200,-0.490
'26:05.414',-0.165,-0.555
'26:05.417',-0.135,-0.565
'26:05.419',-0.060,-0.560
'26:05.422',0.000,-0.540
'26:05.425',0.065,-0.510
'26:05.428',0.100,-0.485
'26:05.431',0.165,-0.460
'26:05.433',0.230,-0.465
'26:05.436',0.270,-0.470
'26:05.439',0.305,-0.455
'26:05.442',0.310,-0.415
'26:05.444',0.280,-0.405
'26:05.447',0.245,-0.400
'26:05.450',0.230,-0.465
'26:05.453',0.230,-0.535
'26:05.456',0.240,-0.570
'26:05.458',0.255,-0.560
'26:05.461',0.270,-0.500
'26:05.464',0.290,-0.430
'26:05.467',0.320,-0.370
'26:05.469',0.325,-0.335
'26:05.472',0.335,-0.305
'26:05.475',0.335,-0.295
'26:05.478',0.345,-0.280
'26:05.481',0.355,-0.275
'26:05.483',0.340,-0.280
'26:05.486',0.310,-0.285
'26:05.489',0.260,-0.280
'26:05.492',0.195,-0.285
'26:05.494',0.125,-0.295
'26:05.497',0.060,-0.290
'26:05.500',0.010,-0.305
'26:05.503',-0.045,-0.295
'26:05.506',-0.080,-0.265
'26:05.508',-0.100,-0.240
'26:05.511',-0.130,-0.210
'26:05.514',-0.155,-0.165
'26:05.517',-0.200,-0.140
'26:05.519',-0.235,-0.110
'26:05.522',-0.255,-0.085
'26:05.525',-0.265,-0.045
'26:05.528',-0.270,-0.030
'26:05.531',-0.265,-0.025
'26:05.533',-0.275,-0.030
'26:05.536',-0.280,-0.025
'26:05.539',-0.285,-0.015
'26:05.542',-0.280,-0.015
'26:05.544',-0.285,0.000
'26:05.547',-0.295,-0.005
'26:05.550',-0.310,-0.010
'26:05.553',-0.320,-0.010
'26:05.556',-0.315,0.005
'26:05.558',-0.315,0.010
'26:05.561',-0.305,0.005
'26:05.564',-0.300,-0.005
'26:05.567',-0.305,-0.005
'26:05.569',-0.320,-0.005
'26:05.572',-0.320,0.000
'26:05.575',-0.315,0.010
'26:05.578',-0.305,0.000
'26:05.581',-0.300,0.010
'26:05.583',-0.305,-0.010
'26:05.586',-0.330,-0.020
'26:05.589',-0.315,-0.015
'26:05.592',-0.300,-0.020
'26:05.594',-0.295,-0.020
'26:05.597',-0.285,-0.020
'26:05.600',-0.290,-0.030
'26:05.603',-0.310,-0.040
'26:05.606',-0.295,-0.030
'26:05.608',-0.290,-0.025
'26:05.611',-0.275,-0.040
'26:05.614',-0.295,-0.055
'26:05.617',-0.285,-0.065
'26:05.619',-0.295,-0.065
'26:05.622',-0.275,-0.065
'26:05.625',-0.275,-0.055
'26:05.628',-0.255,-0.070
'26:05.631',-0.255,-0.080
'26:05.633',-0.260,-0.105
'26:05.636',-0.260,-0.105
'26:05.639',-0.255,-0.105
'26:05.642',-0.240,-0.090
'26:05.644',-0.225,-0.110
'26:05.647',-0.210,-0.120
'26:05.650',-0.225,-0.130
'26:05.653',-0.225,-0.130
'26:05.656',-0.220,-0.135
'26:05.658',-0.205,-0.120
'26:05.661',-0.200,-0.140
'26:05.664',-0.185,-0.140
'26:05.667',-0.200,-0.155
'26:05.669',-0.195,-0.160
'26:05.672',-0.190,-0.160
'26:05.675',-0.170,-0.160
'26:05.678',-0.160,-0.165
'26:05.681',-0.155,-0.165
'26:05.683',-0.150,-0.185
'26:05.686',-0.155,-0.180
'26:05.689',-0.145,-0.170
'26:05.692',-0.130,-0.145
'26:05.694',-0.115,-0.155
'26:05.697',-0.110,-0.155
'26:05.700',-0.110,-0.155
'26:05.703',-0.105,-0.160
'26:05.706',-0.105,-0.135
'26:05.708',-0.085,-0.130
'26:05.711',-0.085,-0.125
'26:05.714',-0.080,-0.120
'26:05.717',-0.080,-0.130
'26:05.719',-0.080,-0.120
'26:05.722',-0.065,-0.095
'26:05.725',-0.050,-0.080
'26:05.728',-0.040,-0.095
'26:05.731',-0.040,-0.100
'26:05.733',-0.040,-0.100
'26:05.736',-0.050,-0.090
'26:05.739',-0.045,-0.075
'26:05.742',-0.020,-0.055
'26:05.744',-0.010,-0.065
'26:05.747',-0.015,-0.060
'26:05.750',-0.025,-0.070
'26:05.753',-0.040,-0.065
'26:05.756',-0.025,-0.050
'26:05.758',-0.025,-0.040
'26:05.761',-0.015,-0.045
'26:05.764',-0.020,-0.060
'26:05.767',-0.040,-0.065
'26:05.769',-0.055,-0.055
'26:05.772',-0.065,-0.045
'26:05.775',-0.075,-0.020
'26:05.778',-0.085,-0.030
'26:05.781',-0.100,-0.045
'26:05.783',-0.125,-0.050
'26:05.786',-0.140,-0.030
'26:05.789',-0.155,-0.030
'26:05.792',-0.165,-0.020
'26:05.794',-0.170,-0.025
'26:05.797',-0.175,-0.025
'26:05.800',-0.195,-0.035
'26:05.803',-0.225,-0.030
'26:05.806',-0.225,-0.025
'26:05.808',-0.225,-0.005
'26:05.811',-0.230,-0.015
'26:05.814',-0.235,-0.020
'26:05.817',-0.260,-0.030
'26:05.819',-0.270,-0.030
'26:05.822',-0.265,-0.015
'26:05.825',-0.265,-0.005
'26:05.828',-0.270,-0.015
'26:05.831',-0.280,-0.020
'26:05.833',-0.290,-0.030
'26:05.836',-0.305,-0.030
'26:05.839',-0.305,-0.015
'26:05.842',-0.290,-0.005
'26:05.844',-0.280,-0.010
'26:05.847',-0.290,-0.015
'26:05.850',-0.290,-0.025
'26:05.853',-0.305,-0.025
'26:05.856',-0.295,-0.020
'26:05.858',-0.285,-0.010
'26:05.861',-0.290,-0.005
'26:05.864',-0.300,-0.030
'26:05.867',-0.305,-0.045
'26:05.869',-0.315,-0.030
'26:05.872',-0.315,-0.020
'26:05.875',-0.300,-0.005
'26:05.878',-0.300,-0.015
'26:05.881',-0.300,-0.025
'26:05.883',-0.305,-0.035
'26:05.886',-0.310,-0.030
'26:05.889',-0.305,-0.020
'26:05.892',-0.300,-0.015
'26:05.894',-0.300,-0.010
'26:05.897',-0.305,-0.020
'26:05.900',-0.330,-0.030
'26:05.903',-0.320,-0.035
'26:05.906',-0.320,-0.020
'26:05.908',-0.295,-0.010
'26:05.911',-0.295,-0.015
'26:05.914',-0.310,-0.025
'26:05.917',-0.310,-0.025
'26:05.919',-0.320,-0.025
'26:05.922',-0.320,-0.030
'26:05.925',-0.310,-0.010
'26:05.928',-0.310,-0.015
'26:05.931',-0.310,-0.020
'26:05.933',-0.320,-0.035
'26:05.936',-0.330,-0.030
'26:05.939',-0.310,-0.030
'26:05.942',-0.310,-0.010
'26:05.944',-0.305,-0.025
'26:05.947',-0.315,-0.030
'26:05.950',-0.315,-0.030
'26:05.953',-0.340,-0.035
'26:05.956',-0.320,-0.015
'26:05.958',-0.310,-0.010
'26:05.961',-0.305,-0.025
'26:05.964',-0.310,-0.030
'26:05.967',-0.320,-0.045
'26:05.969',-0.325,-0.040
'26:05.972',-0.320,-0.025
'26:05.975',-0.315,-0.005
'26:05.978',-0.315,-0.020
'26:05.981',-0.320,-0.015
'26:05.983',-0.320,-0.045
'26:05.986',-0.330,-0.035
'26:05.989',-0.320,-0.025
'26:05.992',-0.330,-0.015
'26:05.994',-0.315,-0.020
'26:05.997',-0.315,-0.025
'26:06.000',-0.330,-0.040
'26:06.003',-0.335,-0.045
'26:06.006',-0.330,-0.035
'26:06.008',-0.325,-0.020
'26:06.011',-0.315,-0.025
'26:06.014',-0.320,-0.030
'26:06.017',-0.320,-0.045
'26:06.019',-0.325,-0.040
'26:06.022',-0.330,-0.030
'26:06.025',-0.320,-0.020
'26:06.028',-0.315,-0.030
'26:06.031',-0.310,-0.045
'26:06.033',-0.320,-0.045
'26:06.036',-0.320,-0.055
'26:06.039',-0.325,-0.040
'26:06.042',-0.315,-0.030
'26:06.044',-0.310,-0.020
'26:06.047',-0.315,-0.040
'26:06.050',-0.320,-0.045
'26:06.053',-0.320,-0.040
'26:06.056',-0.320,-0.040
'26:06.058',-0.310,-0.025
'26:06.061',-0.305,-0.040
'26:06.064',-0.315,-0.045
'26:06.067',-0.315,-0.055
'26:06.069',-0.330,-0.040
'26:06.072',-0.325,-0.035
'26:06.075',-0.315,-0.025
'26:06.078',-0.330,-0.030
'26:06.081',-0.310,-0.040
'26:06.083',-0.315,-0.050
'26:06.086',-0.330,-0.065
'26:06.089',-0.325,-0.040
'26:06.092',-0.315,-0.035
'26:06.094',-0.310,-0.040
'26:06.097',-0.315,-0.040
'26:06.100',-0.315,-0.060
'26:06.103',-0.315,-0.055
'26:06.106',-0.310,-0.050
'26:06.108',-0.305,-0.025
'26:06.111',-0.310,-0.040
'26:06.114',-0.305,-0.040
'26:06.117',-0.320,-0.055
'26:06.119',-0.320,-0.060
'26:06.122',-0.315,-0.055
'26:06.125',-0.305,-0.035
'26:06.128',-0.295,-0.050
'26:06.131',-0.310,-0.055
'26:06.133',-0.305,-0.060
'26:06.136',-0.325,-0.055
'26:06.139',-0.310,-0.060
'26:06.142',-0.310,-0.045
'26:06.144',-0.300,-0.050
'26:06.147',-0.310,-0.050
'26:06.150',-0.310,-0.060
'26:06.153',-0.330,-0.065
'26:06.156',-0.315,-0.060
'26:06.158',-0.310,-0.040
'26:06.161',-0.295,-0.050
'26:06.164',-0.310,-0.060
'26:06.167',-0.315,-0.060
'26:06.169',-0.330,-0.070
'26:06.172',-0.320,-0.060
'26:06.175',-0.315,-0.050
'26:06.178',-0.310,-0.055
'26:06.181',-0.300,-0.065
'26:06.183',-0.305,-0.075
'26:06.186',-0.320,-0.065
'26:06.189',-0.310,-0.055
'26:06.192',-0.310,-0.035
'26:06.194',-0.295,-0.060
'26:06.197',-0.295,-0.065
'26:06.200',-0.320,-0.070
'26:06.203',-0.315,-0.070
'26:06.206',-0.310,-0.065
'26:06.208',-0.300,-0.045
'26:06.211',-0.310,-0.050
'26:06.214',-0.305,-0.060
'26:06.217',-0.310,-0.080
'26:06.219',-0.325,-0.080
'26:06.222',-0.320,-0.060
'26:06.225',-0.310,-0.055
'26:06.228',-0.300,-0.050
'26:06.231',-0.305,-0.060
'26:06.233',-0.315,-0.070
'26:06.236',-0.320,-0.075
'26:06.239',-0.315,-0.075
'26:06.242',-0.315,-0.055
'26:06.244',-0.305,-0.070
'26:06.247',-0.305,-0.065
'26:06.250',-0.305,-0.070
'26:06.253',-0.320,-0.080
'26:06.256',-0.310,-0.080
'26:06.258',-0.305,-0.055
'26:06.261',-0.295,-0.065
'26:06.264',-0.300,-0.070
'26:06.267',-0.315,-0.080
'26:06.269',-0.320,-0.085
'26:06.272',-0.320,-0.075
'26:06.275',-0.305,-0.060
'26:06.278',-0.300,-0.050
'26:06.281',-0.305,-0.070
'26:06.283',-0.310,-0.075
'26:06.286',-0.325,-0.070
'26:06.289',-0.310,-0.055
'26:06.292',-0.300,-0.050
'26:06.294',-0.295,-0.060
'26:06.297',-0.305,-0.070
'26:06.300',-0.310,-0.090
'26:06.303',-0.325,-0.085
'26:06.306',-0.310,-0.070
'26:06.308',-0.310,-0.065
'26:06.311',-0.295,-0.075
'26:06.314',-0.305,-0.075
'26:06.317',-0.320,-0.075
'26:06.319',-0.320,-0.090
'26:06.322',-0.310,-0.080
'26:06.325',-0.315,-0.060
'26:06.328',-0.305,-0.060
'26:06.331',-0.310,-0.075
'26:06.333',-0.305,-0.085
'26:06.336',-0.315,-0.085
'26:06.339',-0.305,-0.080
'26:06.342',-0.300,-0.060
'26:06.344',-0.300,-0.070
'26:06.347',-0.295,-0.080
'26:06.350',-0.300,-0.095
'26:06.353',-0.310,-0.085
'26:06.356',-0.305,-0.075
'26:06.358',-0.295,-0.075
'26:06.361',-0.290,-0.075
'26:06.364',-0.290,-0.070
'26:06.367',-0.300,-0.080
'26:06.369',-0.305,-0.090
'26:06.372',-0.300,-0.090
'26:06.375',-0.300,-0.085
'26:06.378',-0.280,-0.075
'26:06.381',-0.285,-0.085
'26:06.383',-0.295,-0.095
'26:06.386',-0.310,-0.095
'26:06.389',-0.300,-0.080
'26:06.392',-0.290,-0.070
'26:06.394',-0.285,-0.070
'26:06.397',-0.285,-0.080
'26:06.400',-0.295,-0.095
'26:06.403',-0.300,-0.095
'26:06.406',-0.290,-0.090
'26:06.408',-0.285,-0.090
'26:06.411',-0.285,-0.080
'26:06.414',-0.285,-0.070
'26:06.417',-0.300,-0.100
'26:06.419',-0.305,-0.090
'26:06.422',-0.295,-0.095
'26:06.425',-0.280,-0.075
'26:06.428',-0.275,-0.085
'26:06.431',-0.285,-0.090
'26:06.433',-0.285,-0.095
'26:06.436',-0.300,-0.095
'26:06.439',-0.295,-0.100
'26:06.442',-0.280,-0.080
'26:06.444',-0.270,-0.085
'26:06.447',-0.280,-0.100
'26:06.450',-0.285,-0.110
'26:06.453',-0.285,-0.110
'26:06.456',-0.285,-0.100
'26:06.458',-0.270,-0.090
'26:06.461',-0.270,-0.085
'26:06.464',-0.270,-0.090
'26:06.467',-0.280,-0.100
'26:06.469',-0.290,-0.105
'26:06.472',-0.285,-0.105
'26:06.475',-0.265,-0.090
'26:06.478',-0.265,-0.100
'26:06.481',-0.275,-0.100
'26:06.483',-0.280,-0.105
'26:06.486',-0.285,-0.105
'26:06.489',-0.285,-0.100
'26:06.492',-0.285,-0.095
'26:06.494',-0.265,-0.100
'26:06.497',-0.270,-0.100
'26:06.500',-0.280,-0.105
'26:06.503',-0.285,-0.110
'26:06.506',-0.275,-0.110
'26:06.508',-0.265,-0.095
'26:06.511',-0.265,-0.105
'26:06.514',-0.280,-0.105
'26:06.517',-0.280,-0.120
'26:06.519',-0.290,-0.125
'26:06.522',-0.275,-0.105
'26:06.525',-0.265,-0.095
'26:06.528',-0.265,-0.105
'26:06.531',-0.270,-0.100
'26:06.533',-0.275,-0.120
'26:06.536',-0.280,-0.115
'26:06.539',-0.270,-0.105
'26:06.542',-0.270,-0.095
'26:06.544',-0.255,-0.105
'26:06.547',-0.270,-0.115
'26:06.550',-0.280,-0.120
'26:06.553',-0.280,-0.115
'26:06.556',-0.280,-0.105
'26:06.558',-0.260,-0.110
'26:06.561',-0.260,-0.105
'26:06.564',-0.265,-0.115
'26:06.567',-0.275,-0.125
'26:06.569',-0.280,-0.115
'26:06.572',-0.270,-0.105
'26:06.575',-0.250,-0.095
'26:06.578',-0.260,-0.105
'26:06.581',-0.260,-0.115
'26:06.583',-0.265,-0.115
'26:06.586',-0.265,-0.115
'26:06.589',-0.260,-0.115
'26:06.592',-0.255,-0.100
'26:06.594',-0.250,-0.110
'26:06.597',-0.250,-0.115
'26:06.600',-0.265,-0.125
'26:06.603',-0.260,-0.115
'26:06.606',-0.260,-0.110
'26:06.608',-0.260,-0.110
'26:06.611',-0.250,-0.105
'26:06.614',-0.260,-0.105
'26:06.617',-0.270,-0.120
'26:06.619',-0.270,-0.100
'26:06.622',-0.270,-0.110
'26:06.625',-0.255,-0.100
'26:06.628',-0.260,-0.105
'26:06.631',-0.270,-0.105
'26:06.633',-0.280,-0.120
'26:06.636',-0.280,-0.110
'26:06.639',-0.265,-0.110
'26:06.642',-0.255,-0.105
'26:06.644',-0.255,-0.105
'26:06.647',-0.260,-0.110
'26:06.650',-0.260,-0.115
'26:06.653',-0.265,-0.120
'26:06.656',-0.265,-0.110
'26:06.658',-0.255,-0.100
'26:06.661',-0.250,-0.105
'26:06.664',-0.255,-0.115
'26:06.667',-0.260,-0.115
'26:06.669',-0.260,-0.110
'26:06.672',-0.245,-0.105
'26:06.675',-0.240,-0.105
'26:06.678',-0.235,-0.105
'26:06.681',-0.235,-0.125
'26:06.683',-0.235,-0.130
'26:06.686',-0.245,-0.115
'26:06.689',-0.230,-0.120
'26:06.692',-0.225,-0.110
'26:06.694',-0.210,-0.130
'26:06.697',-0.210,-0.150
'26:06.700',-0.205,-0.170
'26:06.703',-0.215,-0.180
'26:06.706',-0.210,-0.170
'26:06.708',-0.205,-0.140
'26:06.711',-0.200,-0.115
'26:06.714',-0.195,-0.120
'26:06.717',-0.205,-0.150
'26:06.719',-0.200,-0.135
'26:06.722',-0.180,-0.140
'26:06.725',-0.165,-0.130
'26:06.728',-0.175,-0.135
'26:06.731',-0.180,-0.140
'26:06.733',-0.195,-0.150
'26:06.736',-0.200,-0.145
'26:06.739',-0.200,-0.130
'26:06.742',-0.215,-0.125
'26:06.744',-0.185,-0.130
'26:06.747',-0.195,-0.125
'26:06.750',-0.210,-0.120
'26:06.753',-0.230,-0.115
'26:06.756',-0.230,-0.095
'26:06.758',-0.225,-0.085
'26:06.761',-0.230,-0.090
'26:06.764',-0.230,-0.110
'26:06.767',-0.245,-0.120
'26:06.769',-0.255,-0.110
'26:06.772',-0.255,-0.100
'26:06.775',-0.250,-0.095
'26:06.778',-0.255,-0.095
'26:06.781',-0.255,-0.110
'26:06.783',-0.265,-0.110
'26:06.786',-0.260,-0.100
'26:06.789',-0.255,-0.095
'26:06.792',-0.240,-0.085
'26:06.794',-0.250,-0.090
'26:06.797',-0.245,-0.105
'26:06.800',-0.255,-0.130
'26:06.803',-0.260,-0.105
'26:06.806',-0.265,-0.095
'26:06.808',-0.245,-0.090
'26:06.811',-0.245,-0.095
'26:06.814',-0.260,-0.105
'26:06.817',-0.260,-0.115
'26:06.819',-0.260,-0.100
'26:06.822',-0.250,-0.095
'26:06.825',-0.240,-0.080
'26:06.828',-0.245,-0.095
'26:06.831',-0.235,-0.110
'26:06.833',-0.250,-0.115
'26:06.836',-0.260,-0.105
'26:06.839',-0.245,-0.090
'26:06.842',-0.245,-0.080
'26:06.844',-0.245,-0.080
'26:06.847',-0.250,-0.060
'26:06.850',-0.240,-0.035
'26:06.853',-0.230,-0.040
'26:06.856',-0.200,-0.050
'26:06.858',-0.175,-0.110
'26:06.861',-0.140,-0.205
'26:06.864',-0.125,-0.325
'26:06.867',-0.105,-0.425
'26:06.869',-0.045,-0.530
'26:06.872',0.065,-0.640
'26:06.875',0.180,-0.760
'26:06.878',0.290,-0.895
'26:06.881',0.425,-0.960
'26:06.883',0.540,-0.950
'26:06.886',0.630,-0.880
'26:06.889',0.725,-0.795
'26:06.892',0.830,-0.665
'26:06.894',0.920,-0.555
'26:06.897',0.935,-0.420
'26:06.900',0.835,-0.335
'26:06.903',0.630,-0.235
'26:06.906',0.375,-0.145
'26:06.908',0.150,-0.110
'26:06.911',-0.020,-0.145
'26:06.914',-0.145,-0.180
'26:06.917',-0.225,-0.205
'26:06.919',-0.265,-0.185
'26:06.922',-0.260,-0.160
'26:06.925',-0.225,-0.120
'26:06.928',-0.200,-0.115
'26:06.931',-0.190,-0.105
'26:06.933',-0.200,-0.110
'26:06.936',-0.215,-0.095
'26:06.939',-0.225,-0.095
'26:06.942',-0.240,-0.075
'26:06.944',-0.260,-0.085
'26:06.947',-0.270,-0.085
'26:06.950',-0.280,-0.090
'26:06.953',-0.290,-0.095
'26:06.956',-0.265,-0.070
'26:06.958',-0.265,-0.070
'26:06.961',-0.265,-0.075
'26:06.964',-0.265,-0.070
'26:06.967',-0.275,-0.080
'26:06.969',-0.290,-0.080
'26:06.972',-0.285,-0.070
'26:06.975',-0.280,-0.065
'26:06.978',-0.275,-0.065
'26:06.981',-0.270,-0.070
'26:06.983',-0.275,-0.075
'26:06.986',-0.285,-0.070
'26:06.989',-0.285,-0.075
'26:06.992',-0.270,-0.065
'26:06.994',-0.270,-0.060
'26:06.997',-0.270,-0.070
'26:07.000',-0.275,-0.085
'26:07.003',-0.285,-0.080
'26:07.006',-0.270,-0.065
'26:07.008',-0.270,-0.070
'26:07.011',-0.270,-0.080
'26:07.014',-0.275,-0.085
'26:07.017',-0.270,-0.095
'26:07.019',-0.275,-0.095
'26:07.022',-0.270,-0.085
'26:07.025',-0.260,-0.085
'26:07.028',-0.255,-0.095
'26:07.031',-0.245,-0.095
'26:07.033',-0.255,-0.110
'26:07.036',-0.260,-0.105
'26:07.039',-0.250,-0.100
'26:07.042',-0.250,-0.090
'26:07.044',-0.240,-0.095
'26:07.047',-0.250,-0.105
'26:07.050',-0.245,-0.125
'26:07.053',-0.260,-0.120
'26:07.056',-0.250,-0.110
'26:07.058',-0.245,-0.110
'26:07.061',-0.230,-0.105
'26:07.064',-0.230,-0.130
'26:07.067',-0.220,-0.135
'26:07.069',-0.230,-0.135
'26:07.072',-0.225,-0.135
'26:07.075',-0.215,-0.125
'26:07.078',-0.210,-0.125
'26:07.081',-0.195,-0.140
'26:07.083',-0.200,-0.155
'26:07.086',-0.200,-0.150
'26:07.089',-0.190,-0.140
'26:07.092',-0.185,-0.145
'26:07.094',-0.170,-0.145
'26:07.097',-0.145,-0.160
'26:07.100',-0.145,-0.170
'26:07.103',-0.130,-0.165
'26:07.106',-0.120,-0.150
'26:07.108',-0.105,-0.130
'26:07.111',-0.100,-0.135
'26:07.114',-0.085,-0.135
'26:07.117',-0.080,-0.165
'26:07.119',-0.060,-0.175
'26:07.122',-0.035,-0.170
'26:07.125',-0.015,-0.150
'26:07.128',-0.005,-0.165
'26:07.131',0.005,-0.165
'26:07.133',-0.005,-0.185
'26:07.136',-0.005,-0.165
'26:07.139',0.005,-0.160
'26:07.142',0.015,-0.155
'26:07.144',0.005,-0.160
'26:07.147',0.000,-0.175
'26:07.150',-0.030,-0.185
'26:07.153',-0.045,-0.180
'26:07.156',-0.060,-0.170
'26:07.158',-0.050,-0.165
'26:07.161',-0.040,-0.165
'26:07.164',-0.040,-0.165
'26:07.167',-0.045,-0.175
'26:07.169',-0.045,-0.175
'26:07.172',-0.030,-0.175
'26:07.175',-0.015,-0.175
'26:07.178',0.000,-0.165
'26:07.181',0.000,-0.200
'26:07.183',-0.015,-0.190
'26:07.186',-0.030,-0.205
'26:07.189',-0.050,-0.195
'26:07.192',-0.045,-0.185
'26:07.194',-0.050,-0.175
'26:07.197',-0.055,-0.195
'26:07.200',-0.075,-0.210
'26:07.203',-0.090,-0.210
'26:07.206',-0.105,-0.190
'26:07.208',-0.110,-0.185
'26:07.211',-0.130,-0.185
'26:07.214',-0.150,-0.190
'26:07.217',-0.165,-0.200
'26:07.219',-0.180,-0.185
'26:07.222',-0.180,-0.175
'26:07.225',-0.190,-0.170
'26:07.228',-0.190,-0.160
'26:07.231',-0.210,-0.170
'26:07.233',-0.225,-0.175
'26:07.236',-0.225,-0.175
'26:07.239',-0.225,-0.155
'26:07.242',-0.225,-0.150
'26:07.244',-0.225,-0.145
'26:07.247',-0.235,-0.155
'26:07.250',-0.245,-0.175
'26:07.253',-0.250,-0.160
'26:07.256',-0.250,-0.145
'26:07.258',-0.245,-0.140
'26:07.261',-0.235,-0.130
'26:07.264',-0.245,-0.150
'26:07.267',-0.245,-0.150
'26:07.269',-0.250,-0.160
'26:07.272',-0.240,-0.140
'26:07.275',-0.240,-0.125
'26:07.278',-0.235,-0.145
'26:07.281',-0.250,-0.150
'26:07.283',-0.265,-0.150
'26:07.286',-0.255,-0.135
'26:07.289',-0.245,-0.125
'26:07.292',-0.235,-0.115
'26:07.294',-0.240,-0.120
'26:07.297',-0.255,-0.135
'26:07.300',-0.255,-0.140
'26:07.303',-0.260,-0.130
'26:07.306',-0.240,-0.115
'26:07.308',-0.235,-0.110
'26:07.311',-0.235,-0.110
'26:07.314',-0.255,-0.120
'26:07.317',-0.250,-0.135
'26:07.319',-0.245,-0.125
'26:07.322',-0.240,-0.115
'26:07.325',-0.230,-0.110
'26:07.328',-0.225,-0.110
'26:07.331',-0.235,-0.110
'26:07.333',-0.245,-0.125
'26:07.336',-0.245,-0.115
'26:07.339',-0.240,-0.095
'26:07.342',-0.235,-0.090
'26:07.344',-0.225,-0.070
'26:07.347',-0.225,-0.060
'26:07.350',-0.225,-0.040
'26:07.353',-0.225,0.005
'26:07.356',-0.205,0.030
'26:07.358',-0.185,0.040
'26:07.361',-0.170,0.015
'26:07.364',-0.150,-0.010
'26:07.367',-0.115,-0.055
'26:07.369',-0.070,-0.145
'26:07.372',0.005,-0.265
'26:07.375',0.080,-0.440
'26:07.378',0.145,-0.625
'26:07.381',0.210,-0.810
'26:07.383',0.275,-0.925
'26:07.386',0.355,-0.965
'26:07.389',0.405,-0.985
'26:07.392',0.425,-0.980
'26:07.394',0.425,-0.905
'26:07.397',0.390,-0.700
'26:07.400',0.305,-0.480
'26:07.403',0.175,-0.275
'26:07.406',0.045,-0.115
'26:07.408',-0.020,0.010
'26:07.411',-0.030,0.135
'26:07.414',-0.045,0.250
'26:07.417',-0.140,0.320
'26:07.419',-0.275,0.385
'26:07.422',-0.385,0.440
'26:07.425',-0.440,0.480
'26:07.428',-0.485,0.555
'26:07.431',-0.515,0.615
'26:07.433',-0.540,0.675
'26:07.436',-0.570,0.720
'26:07.439',-0.575,0.755
'26:07.442',-0.585,0.730
'26:07.444',-0.610,0.655
'26:07.447',-0.645,0.565
'26:07.450',-0.680,0.465
'26:07.453',-0.680,0.370
'26:07.456',-0.640,0.275
'26:07.458',-0.585,0.180
'26:07.461',-0.515,0.095
'26:07.464',-0.440,0.030
'26:07.467',-0.375,-0.030
'26:07.469',-0.320,-0.050
'26:07.472',-0.275,-0.045
'26:07.475',-0.245,-0.055
'26:07.478',-0.230,-0.070
'26:07.481',-0.240,-0.080
'26:07.483',-0.240,-0.100
'26:07.486',-0.240,-0.090
'26:07.489',-0.230,-0.100
'26:07.492',-0.215,-0.105
'26:07.494',-0.200,-0.110
'26:07.497',-0.210,-0.115
'26:07.500',-0.215,-0.130
'26:07.503',-0.210,-0.130
'26:07.506',-0.205,-0.130
'26:07.508',-0.205,-0.125
'26:07.511',-0.195,-0.130
'26:07.514',-0.195,-0.135
'26:07.517',-0.195,-0.145
'26:07.519',-0.200,-0.150
'26:07.522',-0.195,-0.150
'26:07.525',-0.180,-0.150
'26:07.528',-0.175,-0.145
'26:07.531',-0.180,-0.150
'26:07.533',-0.190,-0.165
'26:07.536',-0.180,-0.160
'26:07.539',-0.180,-0.150
'26:07.542',-0.170,-0.155
'26:07.544',-0.165,-0.160
'26:07.547',-0.165,-0.180
'26:07.550',-0.160,-0.185
'26:07.553',-0.160,-0.185
'26:07.556',-0.155,-0.185
'26:07.558',-0.130,-0.170
'26:07.561',-0.125,-0.190
'26:07.564',-0.120,-0.195
'26:07.567',-0.135,-0.210
'26:07.569',-0.140,-0.210
'26:07.572',-0.125,-0.210
'26:07.575',-0.115,-0.200
'26:07.578',-0.105,-0.210
'26:07.581',-0.100,-0.215
'26:07.583',-0.100,-0.245
'26:07.586',-0.095,-0.240
'26:07.589',-0.080,-0.235
'26:07.592',-0.065,-0.250
'26:07.594',-0.065,-0.250
'26:07.597',-0.050,-0.275
'26:07.600',-0.045,-0.280
'26:07.603',-0.045,-0.285
'26:07.606',-0.015,-0.290
'26:07.608',-0.005,-0.285
'26:07.611',0.010,-0.305
'26:07.614',0.015,-0.315
'26:07.617',0.015,-0.335
'26:07.619',0.025,-0.340
'26:07.622',0.050,-0.350
'26:07.625',0.070,-0.340
'26:07.628',0.080,-0.350
'26:07.631',0.090,-0.370
'26:07.633',0.095,-0.380
'26:07.636',0.110,-0.380
'26:07.639',0.125,-0.390
'26:07.642',0.135,-0.380
'26:07.644',0.150,-0.385
'26:07.647',0.150,-0.390
'26:07.650',0.145,-0.390
'26:07.653',0.130,-0.390
'26:07.656',0.135,-0.370
'26:07.658',0.140,-0.365
'26:07.661',0.125,-0.360
'26:07.664',0.115,-0.345
'26:07.667',0.095,-0.355
'26:07.669',0.075,-0.335
'26:07.672',0.065,-0.310
'26:07.675',0.050,-0.295
'26:07.678',0.025,-0.285
'26:07.681',0.005,-0.275
'26:07.683',-0.025,-0.270
'26:07.686',-0.040,-0.255
'26:07.689',-0.060,-0.230
'26:07.692',-0.070,-0.205
'26:07.694',-0.090,-0.195
'26:07.697',-0.110,-0.190
'26:07.700',-0.130,-0.180
'26:07.703',-0.155,-0.155
'26:07.706',-0.150,-0.140
'26:07.708',-0.150,-0.120
'26:07.711',-0.175,-0.110
'26:07.714',-0.175,-0.115
'26:07.717',-0.200,-0.115
'26:07.719',-0.215,-0.095
'26:07.722',-0.215,-0.085
'26:07.725',-0.210,-0.075
'26:07.728',-0.220,-0.080
'26:07.731',-0.225,-0.075
'26:07.733',-0.240,-0.080
'26:07.736',-0.235,-0.060
'26:07.739',-0.235,-0.055
'26:07.742',-0.240,-0.055
'26:07.744',-0.240,-0.050
'26:07.747',-0.240,-0.065
'26:07.750',-0.255,-0.065
'26:07.753',-0.260,-0.065
'26:07.756',-0.245,-0.060
'26:07.758',-0.250,-0.050
'26:07.761',-0.250,-0.045
'26:07.764',-0.245,-0.060
'26:07.767',-0.255,-0.065
'26:07.769',-0.250,-0.055
'26:07.772',-0.260,-0.045
'26:07.775',-0.255,-0.040
'26:07.778',-0.250,-0.050
'26:07.781',-0.260,-0.055
'26:07.783',-0.265,-0.070
'26:07.786',-0.270,-0.060
'26:07.789',-0.265,-0.050
'26:07.792',-0.255,-0.045
'26:07.794',-0.265,-0.035
'26:07.797',-0.270,-0.055
'26:07.800',-0.275,-0.050
'26:07.803',-0.275,-0.050
'26:07.806',-0.270,-0.045
'26:07.808',-0.265,-0.035
'26:07.811',-0.275,-0.040
'26:07.814',-0.265,-0.040
'26:07.817',-0.270,-0.055
'26:07.819',-0.275,-0.055
'26:07.822',-0.280,-0.045
'26:07.825',-0.275,-0.040
'26:07.828',-0.275,-0.045
'26:07.831',-0.285,-0.040
'26:07.833',-0.285,-0.060
'26:07.836',-0.295,-0.055
'26:07.839',-0.290,-0.045
'26:07.842',-0.280,-0.045
'26:07.844',-0.285,-0.030
'26:07.847',-0.285,-0.050
'26:07.850',-0.290,-0.070
'26:07.853',-0.300,-0.065
'26:07.856',-0.295,-0.050
'26:07.858',-0.290,-0.045
'26:07.861',-0.275,-0.035
'26:07.864',-0.285,-0.040
'26:07.867',-0.290,-0.060
'26:07.869',-0.305,-0.070
'26:07.872',-0.300,-0.045
'26:07.875',-0.285,-0.030
'26:07.878',-0.280,-0.045
'26:07.881',-0.290,-0.055
'26:07.883',-0.300,-0.055
'26:07.886',-0.305,-0.060
'26:07.889',-0.295,-0.050
'26:07.892',-0.285,-0.045
'26:07.894',-0.285,-0.040
'26:07.897',-0.290,-0.040
'26:07.900',-0.290,-0.065
'26:07.903',-0.295,-0.055
'26:07.906',-0.300,-0.050
'26:07.908',-0.285,-0.040
'26:07.911',-0.275,-0.040
'26:07.914',-0.285,-0.045
'26:07.917',-0.300,-0.055
'26:07.919',-0.305,-0.055
'26:07.922',-0.295,-0.040
'26:07.925',-0.275,-0.040
'26:07.928',-0.285,-0.045
'26:07.931',-0.285,-0.050
'26:07.933',-0.285,-0.060
'26:07.936',-0.300,-0.065
'26:07.939',-0.290,-0.045
'26:07.942',-0.285,-0.040
'26:07.944',-0.280,-0.050
'26:07.947',-0.275,-0.055
'26:07.950',-0.285,-0.060
'26:07.953',-0.290,-0.055
'26:07.956',-0.290,-0.050
'26:07.958',-0.285,-0.040
'26:07.961',-0.280,-0.040
'26:07.964',-0.285,-0.050
'26:07.967',-0.295,-0.065
'26:07.969',-0.305,-0.055
'26:07.972',-0.285,-0.050
'26:07.975',-0.285,-0.045
'26:07.978',-0.285,-0.045
'26:07.981',-0.285,-0.060
'26:07.983',-0.290,-0.060
'26:07.986',-0.295,-0.055
'26:07.989',-0.285,-0.040
'26:07.992',-0.280,-0.035
'26:07.994',-0.280,-0.045
'26:07.997',-0.275,-0.055
'26:08.000',-0.290,-0.075
'26:08.003',-0.295,-0.065
'26:08.006',-0.280,-0.050
'26:08.008',-0.265,-0.035
'26:08.011',-0.270,-0.045
'26:08.014',-0.280,-0.045
'26:08.017',-0.290,-0.065
'26:08.019',-0.300,-0.065
'26:08.022',-0.295,-0.045
'26:08.025',-0.280,-0.050
'26:08.028',-0.275,-0.045
'26:08.031',-0.285,-0.055
'26:08.033',-0.290,-0.065
'26:08.036',-0.290,-0.055
'26:08.039',-0.285,-0.050
'26:08.042',-0.280,-0.045
'26:08.044',-0.275,-0.045
'26:08.047',-0.275,-0.050
'26:08.050',-0.275,-0.055
'26:08.053',-0.285,-0.060
'26:08.056',-0.270,-0.050
'26:08.058',-0.280,-0.040
'26:08.061',-0.275,-0.050
'26:08.064',-0.275,-0.060
'26:08.067',-0.275,-0.060
'26:08.069',-0.285,-0.055
'26:08.072',-0.285,-0.045
'26:08.075',-0.275,-0.035
'26:08.078',-0.270,-0.040
'26:08.081',-0.280,-0.045
'26:08.083',-0.290,-0.065
'26:08.086',-0.280,-0.060
'26:08.089',-0.280,-0.060
'26:08.092',-0.275,-0.060
'26:08.094',-0.275,-0.045
'26:08.097',-0.280,-0.060
'26:08.100',-0.280,-0.070
'26:08.103',-0.285,-0.060
'26:08.106',-0.280,-0.050
'26:08.108',-0.270,-0.050
'26:08.111',-0.265,-0.055
'26:08.114',-0.270,-0.070
'26:08.117',-0.280,-0.070
'26:08.119',-0.280,-0.060
'26:08.122',-0.290,-0.065
'26:08.125',-0.275,-0.050
'26:08.128',-0.275,-0.055
'26:08.131',-0.290,-0.070
'26:08.133',-0.290,-0.070
'26:08.136',-0.280,-0.070
'26:08.139',-0.280,-0.060
'26:08.142',-0.265,-0.055
'26:08.144',-0.265,-0.045
'26:08.147',-0.270,-0.065
'26:08.150',-0.275,-0.075
'26:08.153',-0.275,-0.070
'26:08.156',-0.265,-0.060
'26:08.158',-0.270,-0.045
'26:08.161',-0.275,-0.060
'26:08.164',-0.270,-0.070
'26:08.167',-0.280,-0.075
'26:08.169',-0.275,-0.065
'26:08.172',-0.270,-0.060
'26:08.175',-0.270,-0.045
'26:08.178',-0.260,-0.060
'26:08.181',-0.260,-0.060
'26:08.183',-0.275,-0.080
'26:08.186',-0.275,-0.075
'26:08.189',-0.265,-0.070
'26:08.192',-0.265,-0.060
'26:08.194',-0.260,-0.070
'26:08.197',-0.265,-0.065
'26:08.200',-0.270,-0.070
'26:08.203',-0.270,-0.070
'26:08.206',-0.265,-0.065
'26:08.208',-0.260,-0.060
'26:08.211',-0.255,-0.060
'26:08.214',-0.260,-0.065
'26:08.217',-0.270,-0.070
'26:08.219',-0.270,-0.080
'26:08.222',-0.265,-0.070
'26:08.225',-0.260,-0.060
'26:08.228',-0.270,-0.065
'26:08.231',-0.270,-0.080
'26:08.233',-0.270,-0.085
'26:08.236',-0.275,-0.080
'26:08.239',-0.270,-0.065
'26:08.242',-0.260,-0.065
'26:08.244',-0.260,-0.070
'26:08.247',-0.275,-0.070
'26:08.250',-0.280,-0.080
'26:08.253',-0.280,-0.075
'26:08.256',-0.270,-0.075
'26:08.258',-0.260,-0.065
'26:08.261',-0.265,-0.065
'26:08.264',-0.265,-0.075
'26:08.267',-0.275,-0.080
'26:08.269',-0.280,-0.080
'26:08.272',-0.275,-0.070
'26:08.275',-0.255,-0.065
'26:08.278',-0.270,-0.065
'26:08.281',-0.265,-0.070
'26:08.283',-0.275,-0.085
'26:08.286',-0.270,-0.070
'26:08.289',-0.260,-0.055
'26:08.292',-0.250,-0.060
'26:08.294',-0.255,-0.065
'26:08.297',-0.255,-0.085
'26:08.300',-0.255,-0.080
'26:08.303',-0.255,-0.070
'26:08.306',-0.255,-0.075
'26:08.308',-0.245,-0.065
'26:08.311',-0.255,-0.075
'26:08.314',-0.260,-0.075
'26:08.317',-0.265,-0.090
'26:08.319',-0.270,-0.090
'26:08.322',-0.260,-0.070
'26:08.325',-0.255,-0.070
'26:08.328',-0.250,-0.075
'26:08.331',-0.250,-0.080
'26:08.333',-0.260,-0.085
'26:08.336',-0.270,-0.085
'26:08.339',-0.260,-0.070
'26:08.342',-0.245,-0.075
'26:08.344',-0.255,-0.065
'26:08.347',-0.260,-0.085
'26:08.350',-0.260,-0.095
'26:08.353',-0.260,-0.080
'26:08.356',-0.245,-0.065
'26:08.358',-0.245,-0.070
'26:08.361',-0.255,-0.075
'26:08.364',-0.250,-0.090
'26:08.367',-0.255,-0.090
'26:08.369',-0.245,-0.080
'26:08.372',-0.245,-0.080
'26:08.375',-0.230,-0.080
'26:08.378',-0.235,-0.080
'26:08.381',-0.250,-0.100
'26:08.383',-0.245,-0.095
'26:08.386',-0.245,-0.090
'26:08.389',-0.250,-0.070
'26:08.392',-0.235,-0.070
'26:08.394',-0.240,-0.085
'26:08.397',-0.240,-0.095
'26:08.400',-0.250,-0.100
'26:08.403',-0.265,-0.090
'26:08.406',-0.240,-0.080
'26:08.408',-0.235,-0.065
'26:08.411',-0.235,-0.080
'26:08.414',-0.235,-0.085
'26:08.417',-0.240,-0.095
'26:08.419',-0.240,-0.095
'26:08.422',-0.230,-0.075
'26:08.425',-0.245,-0.080
'26:08.428',-0.230,-0.085
'26:08.431',-0.235,-0.090
'26:08.433',-0.245,-0.105
'26:08.436',-0.245,-0.100
'26:08.439',-0.230,-0.090
'26:08.442',-0.225,-0.080
'26:08.444',-0.225,-0.090
'26:08.447',-0.235,-0.090
'26:08.450',-0.230,-0.110
'26:08.453',-0.225,-0.100
'26:08.456',-0.230,-0.085
'26:08.458',-0.235,-0.080
'26:08.461',-0.230,-0.090
'26:08.464',-0.230,-0.095
'26:08.467',-0.240,-0.100
'26:08.469',-0.220,-0.105
'26:08.472',-0.230,-0.100
'26:08.475',-0.225,-0.085
'26:08.478',-0.225,-0.095
'26:08.481',-0.230,-0.095
'26:08.483',-0.240,-0.120
'26:08.486',-0.235,-0.110
'26:08.489',-0.230,-0.090
'26:08.492',-0.220,-0.085
'26:08.494',-0.225,-0.095
'26:08.497',-0.225,-0.100
'26:08.500',-0.230,-0.115
'26:08.503',-0.235,-0.095
'26:08.506',-0.220,-0.085
'26:08.508',-0.220,-0.085
'26:08.511',-0.225,-0.100
'26:08.514',-0.235,-0.100
'26:08.517',-0.235,-0.110
'26:08.519',-0.230,-0.105
'26:08.522',-0.225,-0.105
'26:08.525',-0.220,-0.095
'26:08.528',-0.225,-0.090
'26:08.531',-0.225,-0.105
'26:08.533',-0.230,-0.115
'26:08.536',-0.240,-0.105
'26:08.539',-0.225,-0.100
'26:08.542',-0.210,-0.095
'26:08.544',-0.220,-0.110
'26:08.547',-0.225,-0.105
'26:08.550',-0.235,-0.125
'26:08.553',-0.235,-0.120
'26:08.556',-0.225,-0.085
'26:08.558',-0.215,-0.105
'26:08.561',-0.210,-0.115
'26:08.564',-0.215,-0.110
'26:08.567',-0.225,-0.125
'26:08.569',-0.230,-0.115
'26:08.572',-0.215,-0.095
'26:08.575',-0.210,-0.090
'26:08.578',-0.210,-0.105
'26:08.581',-0.235,-0.105
'26:08.583',-0.230,-0.105
'26:08.586',-0.235,-0.115
'26:08.589',-0.220,-0.105
'26:08.592',-0.210,-0.095
'26:08.594',-0.215,-0.110
'26:08.597',-0.215,-0.115
'26:08.600',-0.220,-0.125
'26:08.603',-0.225,-0.120
'26:08.606',-0.215,-0.110
'26:08.608',-0.200,-0.100
'26:08.611',-0.215,-0.115
'26:08.614',-0.215,-0.125
'26:08.617',-0.220,-0.135
'26:08.619',-0.220,-0.120
'26:08.622',-0.215,-0.105
'26:08.625',-0.195,-0.105
'26:08.628',-0.195,-0.110
'26:08.631',-0.200,-0.130
'26:08.633',-0.210,-0.135
'26:08.636',-0.210,-0.125
'26:08.639',-0.205,-0.105
'26:08.642',-0.190,-0.095
'26:08.644',-0.195,-0.110
'26:08.647',-0.195,-0.115
'26:08.650',-0.210,-0.120
'26:08.653',-0.205,-0.110
'26:08.656',-0.195,-0.110
'26:08.658',-0.190,-0.110
'26:08.661',-0.185,-0.120
'26:08.664',-0.195,-0.140
'26:08.667',-0.195,-0.140
'26:08.669',-0.195,-0.135
'26:08.672',-0.180,-0.115
'26:08.675',-0.165,-0.105
'26:08.678',-0.165,-0.125
'26:08.681',-0.165,-0.145
'26:08.683',-0.165,-0.170
'26:08.686',-0.170,-0.175
'26:08.689',-0.155,-0.170
'26:08.692',-0.150,-0.175
'26:08.694',-0.150,-0.165
'26:08.697',-0.165,-0.155
'26:08.700',-0.165,-0.165
'26:08.703',-0.170,-0.145
'26:08.706',-0.150,-0.135
'26:08.708',-0.130,-0.140
'26:08.711',-0.130,-0.135
'26:08.714',-0.125,-0.155
'26:08.717',-0.135,-0.155
'26:08.719',-0.150,-0.160
'26:08.722',-0.150,-0.155
'26:08.725',-0.150,-0.145
'26:08.728',-0.145,-0.135
'26:08.731',-0.160,-0.160
'26:08.733',-0.170,-0.160
'26:08.736',-0.160,-0.145
'26:08.739',-0.145,-0.130
'26:08.742',-0.145,-0.120
'26:08.744',-0.160,-0.110
'26:08.747',-0.175,-0.110
'26:08.750',-0.195,-0.130
'26:08.753',-0.205,-0.110
'26:08.756',-0.200,-0.115
'26:08.758',-0.185,-0.110
'26:08.761',-0.190,-0.115
'26:08.764',-0.200,-0.120
'26:08.767',-0.200,-0.130
'26:08.769',-0.215,-0.125
'26:08.772',-0.215,-0.110
'26:08.775',-0.210,-0.105
'26:08.778',-0.220,-0.100
'26:08.781',-0.220,-0.130
'26:08.783',-0.225,-0.135
'26:08.786',-0.230,-0.120
'26:08.789',-0.220,-0.110
'26:08.792',-0.215,-0.100
'26:08.794',-0.210,-0.105
'26:08.797',-0.220,-0.120
'26:08.800',-0.220,-0.135
'26:08.803',-0.220,-0.120
'26:08.806',-0.215,-0.120
'26:08.808',-0.205,-0.105
'26:08.811',-0.210,-0.110
'26:08.814',-0.225,-0.125
'26:08.817',-0.215,-0.135
'26:08.819',-0.215,-0.115
'26:08.822',-0.215,-0.120
'26:08.825',-0.205,-0.105
'26:08.828',-0.220,-0.115
'26:08.831',-0.210,-0.120
'26:08.833',-0.215,-0.140
'26:08.836',-0.225,-0.130
'26:08.839',-0.210,-0.115
'26:08.842',-0.200,-0.105
'26:08.844',-0.200,-0.100
'26:08.847',-0.195,-0.105
'26:08.850',-0.200,-0.095
'26:08.853',-0.205,-0.065
'26:08.856',-0.195,-0.040
'26:08.858',-0.170,-0.035
'26:08.861',-0.160,-0.045
'26:08.864',-0.135,-0.105
'26:08.867',-0.120,-0.190
'26:08.869',-0.090,-0.270
'26:08.872',-0.065,-0.360
'26:08.875',-0.025,-0.455
'26:08.878',0.030,-0.555
'26:08.881',0.120,-0.680
'26:08.883',0.200,-0.800
'26:08.886',0.300,-0.910
'26:08.889',0.415,-0.970
'26:08.892',0.520,-0.985
'26:08.894',0.595,-0.970
'26:08.897',0.660,-0.920
'26:08.900',0.735,-0.855
'26:08.903',0.815,-0.760
'26:08.906',0.895,-0.640
'26:08.908',0.905,-0.525
'26:08.911',0.810,-0.430
'26:08.914',0.675,-0.350
'26:08.917',0.500,-0.275
'26:08.919',0.305,-0.230
'26:08.922',0.135,-0.200
'26:08.925',0.010,-0.210
'26:08.928',-0.100,-0.230
'26:08.931',-0.180,-0.250
'26:08.933',-0.225,-0.225
'26:08.936',-0.215,-0.200
'26:08.939',-0.185,-0.175
'26:08.942',-0.160,-0.150
'26:08.944',-0.140,-0.140
'26:08.947',-0.150,-0.150
'26:08.950',-0.155,-0.160
'26:08.953',-0.165,-0.135
'26:08.956',-0.175,-0.125
'26:08.958',-0.185,-0.120
'26:08.961',-0.185,-0.115
'26:08.964',-0.195,-0.125
'26:08.967',-0.215,-0.120
'26:08.969',-0.215,-0.115
'26:08.972',-0.220,-0.105
'26:08.975',-0.220,-0.105
'26:08.978',-0.215,-0.110
'26:08.981',-0.220,-0.120
'26:08.983',-0.235,-0.125
'26:08.986',-0.235,-0.120
'26:08.989',-0.225,-0.110
'26:08.992',-0.220,-0.100
'26:08.994',-0.225,-0.095
'26:08.997',-0.230,-0.115
'26:09.000',-0.235,-0.130
'26:09.003',-0.235,-0.115
'26:09.006',-0.235,-0.125
'26:09.008',-0.230,-0.120
'26:09.011',-0.225,-0.115
'26:09.014',-0.230,-0.125
'26:09.017',-0.245,-0.135
'26:09.019',-0.245,-0.120
'26:09.022',-0.230,-0.120
'26:09.025',-0.225,-0.115
'26:09.028',-0.225,-0.125
'26:09.031',-0.240,-0.135
'26:09.033',-0.255,-0.140
'26:09.036',-0.245,-0.140
'26:09.039',-0.235,-0.135
'26:09.042',-0.215,-0.125
'26:09.044',-0.225,-0.130
'26:09.047',-0.225,-0.135
'26:09.050',-0.235,-0.155
'26:09.053',-0.230,-0.145
'26:09.056',-0.230,-0.145
'26:09.058',-0.220,-0.130
'26:09.061',-0.210,-0.140
'26:09.064',-0.215,-0.160
'26:09.067',-0.220,-0.165
'26:09.069',-0.215,-0.170
'26:09.072',-0.205,-0.155
'26:09.075',-0.200,-0.170
'26:09.078',-0.200,-0.170
'26:09.081',-0.190,-0.180
'26:09.083',-0.210,-0.190
'26:09.086',-0.210,-0.190
'26:09.089',-0.205,-0.180
'26:09.092',-0.200,-0.180
'26:09.094',-0.205,-0.185
'26:09.097',-0.190,-0.200
'26:09.100',-0.190,-0.210
'26:09.103',-0.185,-0.215
'26:09.106',-0.170,-0.205
'26:09.108',-0.165,-0.205
'26:09.111',-0.160,-0.215
'26:09.114',-0.165,-0.235
'26:09.117',-0.175,-0.240
'26:09.119',-0.170,-0.250
'26:09.122',-0.165,-0.235
'26:09.125',-0.145,-0.250
'26:09.128',-0.135,-0.250
'26:09.131',-0.135,-0.270
'26:09.133',-0.135,-0.280
'26:09.136',-0.125,-0.270
'26:09.139',-0.110,-0.275
'26:09.142',-0.110,-0.280
'26:09.144',-0.095,-0.285
'26:09.147',-0.080,-0.285
'26:09.150',-0.070,-0.305
'26:09.153',-0.070,-0.295
'26:09.156',-0.045,-0.295
'26:09.158',-0.025,-0.300
'26:09.161',-0.015,-0.295
'26:09.164',-0.020,-0.310
'26:09.167',-0.010,-0.310
'26:09.169',0.005,-0.300
'26:09.172',0.020,-0.290
'26:09.175',0.040,-0.295
'26:09.178',0.050,-0.315
'26:09.181',0.045,-0.325
'26:09.183',0.035,-0.330
'26:09.186',0.040,-0.315
'26:09.189',0.040,-0.305
'26:09.192',0.035,-0.300
'26:09.194',0.025,-0.280
'26:09.197',0.010,-0.275
'26:09.200',0.000,-0.245
'26:09.203',0.020,-0.235
'26:09.206',0.030,-0.220
'26:09.208',0.060,-0.200
'26:09.211',0.075,-0.205
'26:09.214',0.060,-0.205
'26:09.217',0.055,-0.205
'26:09.219',0.050,-0.195
'26:09.222',0.045,-0.185
'26:09.225',0.055,-0.190
'26:09.228',0.050,-0.200
'26:09.231',0.025,-0.205
'26:09.233',0.020,-0.210
'26:09.236',-0.010,-0.205
'26:09.239',-0.015,-0.190
'26:09.242',-0.025,-0.195
'26:09.244',-0.040,-0.195
'26:09.247',-0.050,-0.215
'26:09.250',-0.075,-0.220
'26:09.253',-0.085,-0.210
'26:09.256',-0.090,-0.205
'26:09.258',-0.100,-0.210
'26:09.261',-0.115,-0.205
'26:09.264',-0.140,-0.235
'26:09.267',-0.170,-0.215
'26:09.269',-0.175,-0.220
'26:09.272',-0.165,-0.205
'26:09.275',-0.160,-0.205
'26:09.278',-0.175,-0.210
'26:09.281',-0.190,-0.210
'26:09.283',-0.205,-0.210
'26:09.286',-0.205,-0.190
'26:09.289',-0.200,-0.195
'26:09.292',-0.195,-0.175
'26:09.294',-0.205,-0.190
'26:09.297',-0.215,-0.190
'26:09.300',-0.215,-0.200
'26:09.303',-0.220,-0.190
'26:09.306',-0.210,-0.190
'26:09.308',-0.210,-0.190
'26:09.311',-0.210,-0.180
'26:09.314',-0.225,-0.190
'26:09.317',-0.230,-0.200
'26:09.319',-0.220,-0.190
'26:09.322',-0.205,-0.190
'26:09.325',-0.210,-0.170
'26:09.328',-0.215,-0.180
'26:09.331',-0.235,-0.185
'26:09.333',-0.235,-0.180
'26:09.336',-0.235,-0.180
'26:09.339',-0.230,-0.185
'26:09.342',-0.225,-0.170
'26:09.344',-0.220,-0.180
'26:09.347',-0.220,-0.180
'26:09.350',-0.220,-0.180
'26:09.353',-0.220,-0.170
'26:09.356',-0.215,-0.165
'26:09.358',-0.205,-0.160
'26:09.361',-0.215,-0.165
'26:09.364',-0.225,-0.175
'26:09.367',-0.220,-0.180
'26:09.369',-0.220,-0.165
'26:09.372',-0.205,-0.170
'26:09.375',-0.210,-0.155
'26:09.378',-0.210,-0.155
'26:09.381',-0.215,-0.160
'26:09.383',-0.220,-0.175
'26:09.386',-0.215,-0.160
'26:09.389',-0.205,-0.145
'26:09.392',-0.200,-0.145
'26:09.394',-0.205,-0.155
'26:09.397',-0.210,-0.165
'26:09.400',-0.220,-0.175
'26:09.403',-0.215,-0.145
'26:09.406',-0.205,-0.140
'26:09.408',-0.200,-0.150
'26:09.411',-0.210,-0.150
'26:09.414',-0.210,-0.155
'26:09.417',-0.215,-0.155
'26:09.419',-0.205,-0.145
'26:09.422',-0.200,-0.145
'26:09.425',-0.195,-0.140
'26:09.428',-0.210,-0.145
'26:09.431',-0.215,-0.145
'26:09.433',-0.215,-0.150
'26:09.436',-0.210,-0.140
'26:09.439',-0.215,-0.135
'26:09.442',-0.210,-0.125
'26:09.444',-0.210,-0.130
'26:09.447',-0.215,-0.140
'26:09.450',-0.225,-0.155
'26:09.453',-0.220,-0.135
'26:09.456',-0.215,-0.140
'26:09.458',-0.210,-0.125
'26:09.461',-0.220,-0.135
'26:09.464',-0.220,-0.140
'26:09.467',-0.215,-0.140
'26:09.469',-0.225,-0.140
'26:09.472',-0.215,-0.125
'26:09.475',-0.215,-0.130
'26:09.478',-0.215,-0.130
'26:09.481',-0.220,-0.140
'26:09.483',-0.215,-0.135
'26:09.486',-0.225,-0.140
'26:09.489',-0.220,-0.140
'26:09.492',-0.215,-0.130
'26:09.494',-0.205,-0.145
'26:09.497',-0.205,-0.135
'26:09.500',-0.225,-0.145
'26:09.503',-0.230,-0.130
'26:09.506',-0.230,-0.130
'26:09.508',-0.230,-0.135
'26:09.511',-0.215,-0.140
'26:09.514',-0.225,-0.145
'26:09.517',-0.225,-0.150
'26:09.519',-0.225,-0.145
'26:09.522',-0.215,-0.140
'26:09.525',-0.210,-0.140
'26:09.528',-0.225,-0.135
'26:09.531',-0.220,-0.140
'26:09.533',-0.225,-0.155
'26:09.536',-0.240,-0.150
'26:09.539',-0.220,-0.140
'26:09.542',-0.210,-0.135
'26:09.544',-0.215,-0.140
'26:09.547',-0.220,-0.150
'26:09.550',-0.225,-0.150
'26:09.553',-0.230,-0.145
'26:09.556',-0.225,-0.145
'26:09.558',-0.225,-0.140
'26:09.561',-0.225,-0.140
'26:09.564',-0.225,-0.150
'26:09.567',-0.220,-0.150
'26:09.569',-0.225,-0.145
'26:09.572',-0.225,-0.135
'26:09.575',-0.215,-0.140
'26:09.578',-0.220,-0.145
'26:09.581',-0.225,-0.150
'26:09.583',-0.235,-0.155
'26:09.586',-0.225,-0.140
'26:09.589',-0.215,-0.145
'26:09.592',-0.215,-0.140
'26:09.594',-0.215,-0.155
'26:09.597',-0.230,-0.150
'26:09.600',-0.230,-0.165
'26:09.603',-0.230,-0.155
'26:09.606',-0.215,-0.145
'26:09.608',-0.215,-0.140
'26:09.611',-0.225,-0.135
'26:09.614',-0.225,-0.140
'26:09.617',-0.230,-0.165
'26:09.619',-0.235,-0.155
'26:09.622',-0.225,-0.140
'26:09.625',-0.210,-0.145
'26:09.628',-0.210,-0.135
'26:09.631',-0.225,-0.160
'26:09.633',-0.225,-0.150
'26:09.636',-0.225,-0.150
'26:09.639',-0.215,-0.140
'26:09.642',-0.215,-0.145
'26:09.644',-0.210,-0.145
'26:09.647',-0.220,-0.155
'26:09.650',-0.225,-0.160
'26:09.653',-0.225,-0.140
'26:09.656',-0.215,-0.140
'26:09.658',-0.220,-0.145
'26:09.661',-0.215,-0.140
'26:09.664',-0.230,-0.160
'26:09.667',-0.230,-0.160
'26:09.669',-0.235,-0.155
'26:09.672',-0.235,-0.145
'26:09.675',-0.215,-0.155
'26:09.678',-0.215,-0.150
'26:09.681',-0.220,-0.160
'26:09.683',-0.235,-0.160
'26:09.686',-0.235,-0.160
'26:09.689',-0.225,-0.150
'26:09.692',-0.205,-0.145
'26:09.694',-0.220,-0.145
'26:09.697',-0.220,-0.160
'26:09.700',-0.225,-0.160
'26:09.703',-0.235,-0.160
'26:09.706',-0.225,-0.145
'26:09.708',-0.210,-0.140
'26:09.711',-0.215,-0.135
'26:09.714',-0.235,-0.155
'26:09.717',-0.225,-0.150
'26:09.719',-0.230,-0.150
'26:09.722',-0.220,-0.145
'26:09.725',-0.210,-0.135
'26:09.728',-0.210,-0.150
'26:09.731',-0.220,-0.160
'26:09.733',-0.225,-0.165
'26:09.736',-0.225,-0.150
'26:09.739',-0.215,-0.145
'26:09.742',-0.210,-0.140
'26:09.744',-0.210,-0.145
'26:09.747',-0.210,-0.160
'26:09.750',-0.220,-0.160
'26:09.753',-0.235,-0.165
'26:09.756',-0.215,-0.140
'26:09.758',-0.210,-0.145
'26:09.761',-0.220,-0.150
'26:09.764',-0.225,-0.160
'26:09.767',-0.230,-0.170
'26:09.769',-0.230,-0.160
'26:09.772',-0.225,-0.150
'26:09.775',-0.215,-0.145
'26:09.778',-0.210,-0.155
'26:09.781',-0.210,-0.160
'26:09.783',-0.230,-0.165
'26:09.786',-0.225,-0.160
'26:09.789',-0.220,-0.150
'26:09.792',-0.215,-0.150
'26:09.794',-0.215,-0.150
'26:09.797',-0.220,-0.165
'26:09.800',-0.225,-0.170
'26:09.803',-0.225,-0.160
'26:09.806',-0.210,-0.150
'26:09.808',-0.200,-0.145
'26:09.811',-0.205,-0.155
'26:09.814',-0.210,-0.160
'26:09.817',-0.205,-0.165
'26:09.819',-0.215,-0.160
'26:09.822',-0.205,-0.150
'26:09.825',-0.205,-0.140
'26:09.828',-0.205,-0.155
'26:09.831',-0.215,-0.165
'26:09.833',-0.220,-0.165
'26:09.836',-0.225,-0.150
'26:09.839',-0.210,-0.155
'26:09.842',-0.195,-0.140
'26:09.844',-0.205,-0.145
'26:09.847',-0.215,-0.160
'26:09.850',-0.225,-0.165
'26:09.853',-0.220,-0.155
'26:09.856',-0.210,-0.160
'26:09.858',-0.210,-0.155
'26:09.861',-0.215,-0.155
'26:09.864',-0.210,-0.160
'26:09.867',-0.215,-0.170
'26:09.869',-0.215,-0.165
'26:09.872',-0.205,-0.140
'26:09.875',-0.200,-0.150
'26:09.878',-0.215,-0.150
'26:09.881',-0.210,-0.160
'26:09.883',-0.220,-0.160
'26:09.886',-0.220,-0.160
'26:09.889',-0.200,-0.155
'26:09.892',-0.210,-0.155
'26:09.894',-0.205,-0.150
'26:09.897',-0.205,-0.160
'26:09.900',-0.215,-0.165
'26:09.903',-0.215,-0.160
'26:09.906',-0.200,-0.150
'26:09.908',-0.185,-0.150
'26:09.911',-0.190,-0.155
'26:09.914',-0.200,-0.165
'26:09.917',-0.210,-0.170
'26:09.919',-0.205,-0.155
'26:09.922',-0.195,-0.160
'26:09.925',-0.190,-0.145
'26:09.928',-0.205,-0.155
'26:09.931',-0.200,-0.160
'26:09.933',-0.210,-0.170
'26:09.936',-0.205,-0.160
'26:09.939',-0.200,-0.155
'26:09.942',-0.190,-0.145
'26:09.944',-0.195,-0.155
'26:09.947',-0.205,-0.170
'26:09.950',-0.200,-0.170
'26:09.953',-0.215,-0.155
'26:09.956',-0.205,-0.155
'26:09.958',-0.210,-0.155
'26:09.961',-0.205,-0.160
'26:09.964',-0.210,-0.175
'26:09.967',-0.205,-0.180
'26:09.969',-0.195,-0.165
'26:09.972',-0.190,-0.160
'26:09.975',-0.180,-0.155
'26:09.978',-0.190,-0.155
'26:09.981',-0.200,-0.170
'26:09.983',-0.215,-0.175
'26:09.986',-0.215,-0.175
'26:09.989',-0.200,-0.160
'26:09.992',-0.185,-0.160
'26:09.994',-0.205,-0.165
'26:09.997',-0.200,-0.165
'26:10.000',-0.205,-0.175
'26:10.003',-0.210,-0.160
'26:10.006',-0.205,-0.145
'26:10.008',-0.190,-0.160
'26:10.011',-0.195,-0.155
'26:10.014',-0.205,-0.180
'26:10.017',-0.205,-0.175
'26:10.019',-0.210,-0.170
'26:10.022',-0.190,-0.170
'26:10.025',-0.195,-0.155
'26:10.028',-0.185,-0.165
'26:10.031',-0.195,-0.170
'26:10.033',-0.205,-0.165
'26:10.036',-0.205,-0.160
'26:10.039',-0.205,-0.155
'26:10.042',-0.185,-0.160
'26:10.044',-0.200,-0.150
'26:10.047',-0.195,-0.170
'26:10.050',-0.200,-0.180
'26:10.053',-0.205,-0.170
'26:10.056',-0.205,-0.170
'26:10.058',-0.190,-0.160
'26:10.061',-0.190,-0.165
'26:10.064',-0.190,-0.170
'26:10.067',-0.205,-0.180
'26:10.069',-0.200,-0.165
'26:10.072',-0.190,-0.165
'26:10.075',-0.185,-0.165
'26:10.078',-0.185,-0.160
'26:10.081',-0.185,-0.170
'26:10.083',-0.185,-0.180
'26:10.086',-0.185,-0.165
'26:10.089',-0.180,-0.160
'26:10.092',-0.180,-0.165
'26:10.094',-0.185,-0.160
'26:10.097',-0.190,-0.180
'26:10.100',-0.195,-0.180
'26:10.103',-0.205,-0.170
'26:10.106',-0.190,-0.170
'26:10.108',-0.190,-0.160
'26:10.111',-0.190,-0.160
'26:10.114',-0.190,-0.170
'26:10.117',-0.205,-0.180
'26:10.119',-0.195,-0.180
'26:10.122',-0.190,-0.160
'26:10.125',-0.185,-0.165
'26:10.128',-0.185,-0.170
'26:10.131',-0.180,-0.170
'26:10.133',-0.190,-0.170
'26:10.136',-0.190,-0.165
'26:10.139',-0.190,-0.180
'26:10.142',-0.180,-0.165
'26:10.144',-0.200,-0.175
'26:10.147',-0.205,-0.170
'26:10.150',-0.200,-0.175
'26:10.153',-0.190,-0.165
'26:10.156',-0.190,-0.170
'26:10.158',-0.175,-0.160
'26:10.161',-0.185,-0.170
'26:10.164',-0.185,-0.170
'26:10.167',-0.190,-0.170
'26:10.169',-0.200,-0.160
'26:10.172',-0.195,-0.160
'26:10.175',-0.190,-0.160
'26:10.178',-0.190,-0.150
'26:10.181',-0.195,-0.170
'26:10.183',-0.200,-0.180
'26:10.186',-0.205,-0.170
'26:10.189',-0.200,-0.175
'26:10.192',-0.185,-0.175
'26:10.194',-0.185,-0.165
'26:10.197',-0.200,-0.180
'26:10.200',-0.200,-0.185
'26:10.203',-0.200,-0.175
'26:10.206',-0.190,-0.170
'26:10.208',-0.180,-0.180
'26:10.211',-0.190,-0.165
'26:10.214',-0.200,-0.180
'26:10.217',-0.200,-0.185
'26:10.219',-0.210,-0.175
'26:10.222',-0.195,-0.180
'26:10.225',-0.185,-0.170
'26:10.228',-0.190,-0.170
'26:10.231',-0.195,-0.185
'26:10.233',-0.210,-0.180
'26:10.236',-0.210,-0.175
'26:10.239',-0.195,-0.160
'26:10.242',-0.190,-0.170
'26:10.244',-0.200,-0.175
'26:10.247',-0.200,-0.180
'26:10.250',-0.215,-0.175
'26:10.253',-0.205,-0.175
'26:10.256',-0.195,-0.160
'26:10.258',-0.185,-0.160
'26:10.261',-0.190,-0.175
'26:10.264',-0.195,-0.185
'26:10.267',-0.210,-0.185
'26:10.269',-0.200,-0.170
'26:10.272',-0.190,-0.165
'26:10.275',-0.185,-0.170
'26:10.278',-0.190,-0.155
'26:10.281',-0.200,-0.195
'26:10.283',-0.205,-0.190
'26:10.286',-0.205,-0.180
'26:10.289',-0.200,-0.175
'26:10.292',-0.190,-0.180
'26:10.294',-0.195,-0.180
'26:10.297',-0.210,-0.190
'26:10.300',-0.200,-0.200
'26:10.303',-0.200,-0.185
'26:10.306',-0.205,-0.185
'26:10.308',-0.200,-0.175
'26:10.311',-0.200,-0.180
'26:10.314',-0.205,-0.180
'26:10.317',-0.210,-0.195
'26:10.319',-0.200,-0.185
'26:10.322',-0.185,-0.175
'26:10.325',-0.190,-0.180
'26:10.328',-0.200,-0.175
'26:10.331',-0.190,-0.180
'26:10.333',-0.200,-0.185
'26:10.336',-0.190,-0.185
'26:10.339',-0.185,-0.180
'26:10.342',-0.180,-0.175
'26:10.344',-0.185,-0.175
'26:10.347',-0.190,-0.185
'26:10.350',-0.205,-0.180
'26:10.353',-0.200,-0.180
'26:10.356',-0.190,-0.180
'26:10.358',-0.185,-0.180
'26:10.361',-0.190,-0.190
'26:10.364',-0.185,-0.195
'26:10.367',-0.195,-0.195
'26:10.369',-0.195,-0.190
'26:10.372',-0.185,-0.185
'26:10.375',-0.185,-0.180
'26:10.378',-0.190,-0.185
'26:10.381',-0.185,-0.195
'26:10.383',-0.190,-0.190
'26:10.386',-0.190,-0.185
'26:10.389',-0.170,-0.180
'26:10.392',-0.165,-0.180
'26:10.394',-0.170,-0.170
'26:10.397',-0.185,-0.185
'26:10.400',-0.185,-0.185
'26:10.403',-0.190,-0.185
'26:10.406',-0.180,-0.180
'26:10.408',-0.165,-0.180
'26:10.411',-0.180,-0.195
'26:10.414',-0.185,-0.190
'26:10.417',-0.190,-0.195
'26:10.419',-0.190,-0.190
'26:10.422',-0.175,-0.175
'26:10.425',-0.170,-0.190
'26:10.428',-0.175,-0.200
'26:10.431',-0.180,-0.185
'26:10.433',-0.190,-0.195
'26:10.436',-0.180,-0.185
'26:10.439',-0.170,-0.175
'26:10.442',-0.160,-0.175
'26:10.444',-0.165,-0.175
'26:10.447',-0.175,-0.190
'26:10.450',-0.175,-0.185
'26:10.453',-0.180,-0.185
'26:10.456',-0.170,-0.170
'26:10.458',-0.160,-0.170
'26:10.461',-0.175,-0.180
'26:10.464',-0.175,-0.195
'26:10.467',-0.175,-0.190
'26:10.469',-0.170,-0.180
'26:10.472',-0.165,-0.180
'26:10.475',-0.160,-0.170
'26:10.478',-0.160,-0.185
'26:10.481',-0.170,-0.195
'26:10.483',-0.180,-0.190
'26:10.486',-0.170,-0.185
'26:10.489',-0.160,-0.165
'26:10.492',-0.150,-0.180
'26:10.494',-0.160,-0.180
'26:10.497',-0.170,-0.195
'26:10.500',-0.170,-0.185
'26:10.503',-0.160,-0.180
'26:10.506',-0.155,-0.175
'26:10.508',-0.155,-0.175
'26:10.511',-0.155,-0.175
'26:10.514',-0.160,-0.185
'26:10.517',-0.175,-0.190
'26:10.519',-0.165,-0.185
'26:10.522',-0.150,-0.180
'26:10.525',-0.150,-0.185
'26:10.528',-0.155,-0.195
'26:10.531',-0.160,-0.195
'26:10.533',-0.170,-0.200
'26:10.536',-0.160,-0.175
'26:10.539',-0.155,-0.175
'26:10.542',-0.140,-0.185
'26:10.544',-0.145,-0.200
'26:10.547',-0.155,-0.205
'26:10.550',-0.165,-0.200
'26:10.553',-0.155,-0.195
'26:10.556',-0.150,-0.185
'26:10.558',-0.140,-0.185
'26:10.561',-0.150,-0.185
'26:10.564',-0.150,-0.205
'26:10.567',-0.160,-0.205
'26:10.569',-0.155,-0.195
'26:10.572',-0.145,-0.190
'26:10.575',-0.135,-0.200
'26:10.578',-0.135,-0.190
'26:10.581',-0.145,-0.195
'26:10.583',-0.150,-0.205
'26:10.586',-0.150,-0.195
'26:10.589',-0.150,-0.180
'26:10.592',-0.135,-0.190
'26:10.594',-0.135,-0.195
'26:10.597',-0.140,-0.205
'26:10.600',-0.155,-0.210
'26:10.603',-0.150,-0.195
'26:10.606',-0.150,-0.185
'26:10.608',-0.140,-0.190
'26:10.611',-0.125,-0.195
'26:10.614',-0.135,-0.195
'26:10.617',-0.140,-0.205
'26:10.619',-0.140,-0.200
'26:10.622',-0.140,-0.190
'26:10.625',-0.130,-0.190
'26:10.628',-0.130,-0.195
'26:10.631',-0.140,-0.200
'26:10.633',-0.140,-0.200
'26:10.636',-0.145,-0.190
'26:10.639',-0.125,-0.185
'26:10.642',-0.130,-0.185
'26:10.644',-0.125,-0.185
'26:10.647',-0.130,-0.200
'26:10.650',-0.135,-0.200
'26:10.653',-0.140,-0.195
'26:10.656',-0.130,-0.190
'26:10.658',-0.125,-0.190
'26:10.661',-0.135,-0.190
'26:10.664',-0.125,-0.205
'26:10.667',-0.145,-0.210
'26:10.669',-0.145,-0.200
'26:10.672',-0.140,-0.200
'26:10.675',-0.125,-0.190
'26:10.678',-0.135,-0.185
'26:10.681',-0.125,-0.195
'26:10.683',-0.130,-0.200
'26:10.686',-0.135,-0.205
'26:10.689',-0.135,-0.190
'26:10.692',-0.125,-0.195
'26:10.694',-0.125,-0.195
'26:10.697',-0.125,-0.210
'26:10.700',-0.145,-0.205
'26:10.703',-0.145,-0.200
'26:10.706',-0.125,-0.185
'26:10.708',-0.125,-0.195
'26:10.711',-0.115,-0.185
'26:10.714',-0.120,-0.205
'26:10.717',-0.130,-0.200
'26:10.719',-0.135,-0.205
'26:10.722',-0.120,-0.190
'26:10.725',-0.120,-0.200
'26:10.728',-0.120,-0.195
'26:10.731',-0.135,-0.205
'26:10.733',-0.135,-0.210
'26:10.736',-0.135,-0.200
'26:10.739',-0.130,-0.195
'26:10.742',-0.125,-0.190
'26:10.744',-0.110,-0.195
'26:10.747',-0.115,-0.195
'26:10.750',-0.125,-0.205
'26:10.753',-0.120,-0.195
'26:10.756',-0.110,-0.195
'26:10.758',-0.105,-0.190
'26:10.761',-0.095,-0.210
'26:10.764',-0.105,-0.215
'26:10.767',-0.115,-0.220
'26:10.769',-0.105,-0.210
'26:10.772',-0.095,-0.185
'26:10.775',-0.085,-0.190
'26:10.778',-0.070,-0.200
'26:10.781',-0.070,-0.230
'26:10.783',-0.075,-0.250
'26:10.786',-0.080,-0.255
'26:10.789',-0.080,-0.250
'26:10.792',-0.070,-0.255
'26:10.794',-0.075,-0.245
'26:10.797',-0.080,-0.240
'26:10.800',-0.090,-0.240
'26:10.803',-0.080,-0.235
'26:10.806',-0.070,-0.230
'26:10.808',-0.055,-0.235
'26:10.811',-0.040,-0.235
'26:10.814',-0.040,-0.230
'26:10.817',-0.050,-0.235
'26:10.819',-0.060,-0.240
'26:10.822',-0.060,-0.230
'26:10.825',-0.075,-0.230
'26:10.828',-0.070,-0.225
'26:10.831',-0.075,-0.225
'26:10.833',-0.090,-0.220
'26:10.836',-0.080,-0.215
'26:10.839',-0.080,-0.210
'26:10.842',-0.080,-0.185
'26:10.844',-0.095,-0.190
'26:10.847',-0.115,-0.200
'26:10.850',-0.120,-0.195
'26:10.853',-0.120,-0.195
'26:10.856',-0.110,-0.190
'26:10.858',-0.115,-0.190
'26:10.861',-0.125,-0.195
'26:10.864',-0.140,-0.190
'26:10.867',-0.135,-0.195
'26:10.869',-0.130,-0.190
'26:10.872',-0.130,-0.185
'26:10.875',-0.140,-0.190
'26:10.878',-0.140,-0.195
'26:10.881',-0.150,-0.200
'26:10.883',-0.155,-0.210
'26:10.886',-0.145,-0.190
'26:10.889',-0.150,-0.180
'26:10.892',-0.130,-0.180
'26:10.894',-0.135,-0.180
'26:10.897',-0.145,-0.200
'26:10.900',-0.145,-0.200
'26:10.903',-0.140,-0.180
'26:10.906',-0.135,-0.165
'26:10.908',-0.130,-0.150
'26:10.911',-0.135,-0.125
'26:10.914',-0.130,-0.105
'26:10.917',-0.130,-0.055
'26:10.919',-0.110,-0.020
'26:10.922',-0.100,0.030
'26:10.925',-0.070,0.045
'26:10.928',-0.055,0.055
'26:10.931',-0.040,0.040
'26:10.933',-0.030,0.015
'26:10.936',0.000,-0.035
'26:10.939',0.020,-0.125
'26:10.942',0.055,-0.270
'26:10.944',0.065,-0.455
'26:10.947',0.090,-0.645
'26:10.950',0.115,-0.820
'26:10.953',0.140,-1.015
'26:10.956',0.155,-1.215
'26:10.958',0.130,-1.425
'26:10.961',0.130,-1.600
'26:10.964',0.150,-1.680
'26:10.967',0.175,-1.650
'26:10.969',0.225,-1.515
'26:10.972',0.265,-1.290
'26:10.975',0.260,-1.035
'26:10.978',0.205,-0.790
'26:10.981',0.140,-0.580
'26:10.983',0.135,-0.375
'26:10.986',0.195,-0.160
'26:10.989',0.210,-0.015
'26:10.992',0.150,0.075
'26:10.994',0.030,0.095
'26:10.997',-0.110,0.110
'26:11.000',-0.220,0.120
'26:11.003',-0.310,0.125
'26:11.006',-0.370,0.120
'26:11.008',-0.400,0.095
'26:11.011',-0.405,0.035
'26:11.014',-0.405,-0.025
'26:11.017',-0.405,-0.075
'26:11.019',-0.385,-0.110
'26:11.022',-0.340,-0.115
'26:11.025',-0.285,-0.110
'26:11.028',-0.240,-0.115
'26:11.031',-0.200,-0.120
'26:11.033',-0.185,-0.135
'26:11.036',-0.165,-0.135
'26:11.039',-0.165,-0.140
'26:11.042',-0.150,-0.130
'26:11.044',-0.145,-0.140
'26:11.047',-0.150,-0.160
'26:11.050',-0.155,-0.160
'26:11.053',-0.145,-0.155
'26:11.056',-0.130,-0.140
'26:11.058',-0.130,-0.140
'26:11.061',-0.130,-0.150
'26:11.064',-0.125,-0.165
'26:11.067',-0.135,-0.160
'26:11.069',-0.125,-0.160
'26:11.072',-0.125,-0.150
'26:11.075',-0.115,-0.150
'26:11.078',-0.115,-0.160
'26:11.081',-0.130,-0.165
'26:11.083',-0.130,-0.165
'26:11.086',-0.120,-0.160
'26:11.089',-0.115,-0.160
'26:11.092',-0.105,-0.160
'26:11.094',-0.100,-0.155
'26:11.097',-0.105,-0.180
'26:11.100',-0.115,-0.180
'26:11.103',-0.115,-0.180
'26:11.106',-0.110,-0.160
'26:11.108',-0.105,-0.175
'26:11.111',-0.095,-0.180
'26:11.114',-0.100,-0.185
'26:11.117',-0.110,-0.180
'26:11.119',-0.100,-0.180
'26:11.122',-0.095,-0.175
'26:11.125',-0.095,-0.175
'26:11.128',-0.095,-0.195
'26:11.131',-0.100,-0.190
'26:11.133',-0.100,-0.195
'26:11.136',-0.100,-0.195
'26:11.139',-0.080,-0.185
'26:11.142',-0.065,-0.190
'26:11.144',-0.060,-0.190
'26:11.147',-0.065,-0.215
'26:11.150',-0.070,-0.215
'26:11.153',-0.060,-0.210
'26:11.156',-0.050,-0.210
'26:11.158',-0.020,-0.200
'26:11.161',-0.030,-0.215
'26:11.164',-0.035,-0.235
'26:11.167',-0.030,-0.240
'26:11.169',-0.020,-0.230
'26:11.172',-0.010,-0.225
'26:11.175',0.000,-0.230
'26:11.178',0.015,-0.230
'26:11.181',0.015,-0.250
'26:11.183',0.010,-0.250
'26:11.186',0.015,-0.245
'26:11.189',0.045,-0.240
'26:11.192',0.060,-0.255
'26:11.194',0.065,-0.260
'26:11.197',0.070,-0.260
'26:11.200',0.075,-0.275
'26:11.203',0.095,-0.270
'26:11.206',0.115,-0.260
'26:11.208',0.140,-0.270
'26:11.211',0.155,-0.270
'26:11.214',0.160,-0.280
'26:11.217',0.165,-0.280
'26:11.219',0.190,-0.275
'26:11.222',0.210,-0.265
'26:11.225',0.240,-0.270
'26:11.228',0.260,-0.290
'26:11.231',0.265,-0.305
'26:11.233',0.265,-0.315
'26:11.236',0.290,-0.310
'26:11.239',0.310,-0.305
'26:11.242',0.330,-0.300
'26:11.244',0.320,-0.305
'26:11.247',0.315,-0.310
'26:11.250',0.305,-0.300
'26:11.253',0.310,-0.310
'26:11.256',0.290,-0.305
'26:11.258',0.280,-0.305
'26:11.261',0.255,-0.310
'26:11.264',0.225,-0.325
'26:11.267',0.210,-0.305
'26:11.269',0.205,-0.285
'26:11.272',0.200,-0.265
'26:11.275',0.195,-0.265
'26:11.278',0.190,-0.255
'26:11.281',0.165,-0.270
'26:11.283',0.150,-0.270
'26:11.286',0.145,-0.255
'26:11.289',0.110,-0.250
'26:11.292',0.095,-0.265
'26:11.294',0.070,-0.260
'26:11.297',0.050,-0.255
'26:11.300',0.025,-0.290
'26:11.303',0.020,-0.265
'26:11.306',-0.010,-0.265
'26:11.308',-0.020,-0.270
'26:11.311',-0.035,-0.265
'26:11.314',-0.055,-0.260
'26:11.317',-0.085,-0.280
'26:11.319',-0.095,-0.255
'26:11.322',-0.105,-0.245
'26:11.325',-0.105,-0.255
'26:11.328',-0.120,-0.255
'26:11.331',-0.130,-0.260
'26:11.333',-0.145,-0.265
'26:11.336',-0.145,-0.260
'26:11.339',-0.145,-0.250
'26:11.342',-0.140,-0.250
'26:11.344',-0.145,-0.250
'26:11.347',-0.145,-0.255
'26:11.350',-0.155,-0.245
'26:11.353',-0.160,-0.250
'26:11.356',-0.155,-0.245
'26:11.358',-0.145,-0.235
'26:11.361',-0.145,-0.250
'26:11.364',-0.165,-0.265
'26:11.367',-0.165,-0.260
'26:11.369',-0.165,-0.245
'26:11.372',-0.155,-0.220
'26:11.375',-0.165,-0.240
'26:11.378',-0.160,-0.235
'26:11.381',-0.170,-0.245
'26:11.383',-0.175,-0.255
'26:11.386',-0.165,-0.240
'26:11.389',-0.155,-0.225
'26:11.392',-0.150,-0.230
'26:11.394',-0.150,-0.230
'26:11.397',-0.160,-0.255
'26:11.400',-0.170,-0.240
'26:11.403',-0.175,-0.225
'26:11.406',-0.160,-0.230
'26:11.408',-0.160,-0.235
'26:11.411',-0.150,-0.230
'26:11.414',-0.160,-0.240
'26:11.417',-0.165,-0.230
'26:11.419',-0.160,-0.225
'26:11.422',-0.150,-0.210
'26:11.425',-0.135,-0.205
'26:11.428',-0.155,-0.205
'26:11.431',-0.150,-0.190
'26:11.433',-0.165,-0.160
'26:11.436',-0.140,-0.120
'26:11.439',-0.125,-0.105
'26:11.442',-0.115,-0.100
'26:11.444',-0.100,-0.105
'26:11.447',-0.090,-0.135
'26:11.450',-0.075,-0.180
'26:11.453',-0.025,-0.235
'26:11.456',0.035,-0.345
'26:11.458',0.110,-0.495
'26:11.461',0.175,-0.685
'26:11.464',0.245,-0.875
'26:11.467',0.325,-1.000
'26:11.469',0.405,-1.055
'26:11.472',0.465,-1.070
'26:11.475',0.495,-1.075
'26:11.478',0.490,-1.035
'26:11.481',0.485,-0.915
'26:11.483',0.430,-0.735
'26:11.486',0.365,-0.565
'26:11.489',0.255,-0.450
'26:11.492',0.145,-0.355
'26:11.494',0.080,-0.260
'26:11.497',0.070,-0.155
'26:11.500',0.035,-0.055
'26:11.503',-0.055,0.060
'26:11.506',-0.150,0.135
'26:11.508',-0.230,0.185
'26:11.511',-0.285,0.255
'26:11.514',-0.320,0.290
'26:11.517',-0.355,0.345
'26:11.519',-0.375,0.410
'26:11.522',-0.395,0.475
'26:11.525',-0.425,0.510
'26:11.528',-0.450,0.485
'26:11.531',-0.460,0.465
'26:11.533',-0.495,0.395
'26:11.536',-0.525,0.330
'26:11.539',-0.545,0.270
'26:11.542',-0.545,0.210
'26:11.544',-0.525,0.130
'26:11.547',-0.490,0.060
'26:11.550',-0.430,-0.015
'26:11.553',-0.350,-0.075
'26:11.556',-0.280,-0.095
'26:11.558',-0.225,-0.125
'26:11.561',-0.190,-0.130
'26:11.564',-0.180,-0.160
'26:11.567',-0.165,-0.170
'26:11.569',-0.180,-0.165
'26:11.572',-0.155,-0.160
'26:11.575',-0.150,-0.170
'26:11.578',-0.155,-0.170
'26:11.581',-0.155,-0.190
'26:11.583',-0.155,-0.190
'26:11.586',-0.145,-0.195
'26:11.589',-0.140,-0.185
'26:11.592',-0.125,-0.180
'26:11.594',-0.120,-0.190
'26:11.597',-0.120,-0.200
'26:11.600',-0.140,-0.210
'26:11.603',-0.120,-0.215
'26:11.606',-0.120,-0.205
'26:11.608',-0.110,-0.195
'26:11.611',-0.105,-0.215
'26:11.614',-0.110,-0.220
'26:11.617',-0.115,-0.225
'26:11.619',-0.115,-0.220
'26:11.622',-0.100,-0.210
'26:11.625',-0.085,-0.215
'26:11.628',-0.085,-0.225
'26:11.631',-0.090,-0.230
'26:11.633',-0.095,-0.245
'26:11.636',-0.095,-0.235
'26:11.639',-0.090,-0.225
'26:11.642',-0.090,-0.230
'26:11.644',-0.070,-0.245
'26:11.647',-0.075,-0.255
'26:11.650',-0.080,-0.275
'26:11.653',-0.075,-0.265
'26:11.656',-0.065,-0.255
'26:11.658',-0.050,-0.265
'26:11.661',-0.040,-0.265
'26:11.664',-0.040,-0.280
'26:11.667',-0.050,-0.300
'26:11.669',-0.035,-0.295
'26:11.672',-0.020,-0.285
'26:11.675',0.000,-0.295
'26:11.678',0.010,-0.305
'26:11.681',0.020,-0.310
'26:11.683',0.015,-0.320
'26:11.686',0.025,-0.320
'26:11.689',0.025,-0.320
'26:11.692',0.045,-0.335
'26:11.694',0.070,-0.350
'26:11.697',0.070,-0.360
'26:11.700',0.060,-0.375
'26:11.703',0.085,-0.370
'26:11.706',0.100,-0.360
'26:11.708',0.120,-0.375
'26:11.711',0.140,-0.400
'26:11.714',0.125,-0.420
'26:11.717',0.130,-0.430
'26:11.719',0.155,-0.425
'26:11.722',0.175,-0.430
'26:11.725',0.205,-0.430
'26:11.728',0.215,-0.440
'26:11.731',0.220,-0.450
'26:11.733',0.215,-0.460
'26:11.736',0.225,-0.455
'26:11.739',0.230,-0.430
'26:11.742',0.240,-0.435
'26:11.744',0.235,-0.430
'26:11.747',0.215,-0.450
'26:11.750',0.195,-0.430
'26:11.753',0.200,-0.420
'26:11.756',0.185,-0.395
'26:11.758',0.165,-0.390
'26:11.761',0.165,-0.385
'26:11.764',0.125,-0.380
'26:11.767',0.100,-0.375
'26:11.769',0.080,-0.350
'26:11.772',0.075,-0.325
'26:11.775',0.055,-0.320
'26:11.778',0.035,-0.295
'26:11.781',0.005,-0.315
'26:11.783',-0.015,-0.295
'26:11.786',-0.025,-0.275
'26:11.789',-0.035,-0.255
'26:11.792',-0.040,-0.235
'26:11.794',-0.060,-0.240
'26:11.797',-0.080,-0.240
'26:11.800',-0.095,-0.230
'26:11.803',-0.110,-0.195
'26:11.806',-0.110,-0.190
'26:11.808',-0.115,-0.180
'26:11.811',-0.125,-0.185
'26:11.814',-0.130,-0.185
'26:11.817',-0.150,-0.180
'26:11.819',-0.155,-0.160
'26:11.822',-0.155,-0.155
'26:11.825',-0.150,-0.155
'26:11.828',-0.155,-0.145
'26:11.831',-0.170,-0.165
'26:11.833',-0.175,-0.165
'26:11.836',-0.175,-0.145
'26:11.839',-0.170,-0.130
'26:11.842',-0.165,-0.130
'26:11.844',-0.170,-0.140
'26:11.847',-0.175,-0.140
'26:11.850',-0.185,-0.145
'26:11.853',-0.180,-0.130
'26:11.856',-0.175,-0.135
'26:11.858',-0.170,-0.140
'26:11.861',-0.180,-0.135
'26:11.864',-0.180,-0.135
'26:11.867',-0.195,-0.145
'26:11.869',-0.180,-0.130
'26:11.872',-0.175,-0.125
'26:11.875',-0.175,-0.135
'26:11.878',-0.175,-0.140
'26:11.881',-0.180,-0.140
'26:11.883',-0.185,-0.140
'26:11.886',-0.185,-0.130
'26:11.889',-0.180,-0.120
'26:11.892',-0.175,-0.120
'26:11.894',-0.180,-0.120
'26:11.897',-0.195,-0.140
'26:11.900',-0.200,-0.140
'26:11.903',-0.200,-0.125
'26:11.906',-0.185,-0.125
'26:11.908',-0.185,-0.125
'26:11.911',-0.190,-0.130
'26:11.914',-0.205,-0.140
'26:11.917',-0.215,-0.145
'26:11.919',-0.205,-0.135
'26:11.922',-0.205,-0.120
'26:11.925',-0.200,-0.125
'26:11.928',-0.205,-0.125
'26:11.931',-0.205,-0.135
'26:11.933',-0.225,-0.120
'26:11.936',-0.210,-0.130
'26:11.939',-0.210,-0.125
'26:11.942',-0.200,-0.125
'26:11.944',-0.210,-0.125
'26:11.947',-0.215,-0.130
'26:11.950',-0.225,-0.135
'26:11.953',-0.230,-0.115
'26:11.956',-0.220,-0.105
'26:11.958',-0.215,-0.110
'26:11.961',-0.215,-0.115
'26:11.964',-0.220,-0.130
'26:11.967',-0.235,-0.130
'26:11.969',-0.215,-0.130
'26:11.972',-0.220,-0.125
'26:11.975',-0.215,-0.120
'26:11.978',-0.215,-0.115
'26:11.981',-0.220,-0.125
'26:11.983',-0.235,-0.120
'26:11.986',-0.240,-0.125
'26:11.989',-0.230,-0.115
'26:11.992',-0.225,-0.120
'26:11.994',-0.225,-0.115
'26:11.997',-0.220,-0.125
'26:12.000',-0.240,-0.130
'26:12.003',-0.230,-0.115
'26:12.006',-0.225,-0.110
'26:12.008',-0.220,-0.115
'26:12.011',-0.230,-0.125
'26:12.014',-0.225,-0.125
'26:12.017',-0.235,-0.145
'26:12.019',-0.230,-0.130
'26:12.022',-0.230,-0.110
'26:12.025',-0.220,-0.125
'26:12.028',-0.225,-0.110
'26:12.031',-0.225,-0.135
'26:12.033',-0.235,-0.135
'26:12.036',-0.235,-0.130
'26:12.039',-0.235,-0.115
'26:12.042',-0.230,-0.110
'26:12.044',-0.225,-0.120
'26:12.047',-0.235,-0.125
'26:12.050',-0.245,-0.125
'26:12.053',-0.230,-0.125
'26:12.056',-0.230,-0.115
'26:12.058',-0.220,-0.120
'26:12.061',-0.225,-0.125
'26:12.064',-0.225,-0.125
'26:12.067',-0.245,-0.125
'26:12.069',-0.235,-0.125
'26:12.072',-0.230,-0.110
'26:12.075',-0.225,-0.105
'26:12.078',-0.230,-0.120
'26:12.081',-0.230,-0.130
'26:12.083',-0.240,-0.115
'26:12.086',-0.230,-0.125
'26:12.089',-0.230,-0.110
'26:12.092',-0.225,-0.120
'26:12.094',-0.225,-0.120
'26:12.097',-0.245,-0.135
'26:12.100',-0.245,-0.125
'26:12.103',-0.240,-0.125
'26:12.106',-0.235,-0.110
'26:12.108',-0.230,-0.115
'26:12.111',-0.235,-0.115
'26:12.114',-0.235,-0.135
'26:12.117',-0.240,-0.140
'26:12.119',-0.250,-0.110
'26:12.122',-0.230,-0.110
'26:12.125',-0.230,-0.120
'26:12.128',-0.230,-0.130
'26:12.131',-0.235,-0.140
'26:12.133',-0.245,-0.140
'26:12.136',-0.245,-0.135
'26:12.139',-0.235,-0.110
'26:12.142',-0.225,-0.120
'26:12.144',-0.230,-0.120
'26:12.147',-0.235,-0.140
'26:12.150',-0.245,-0.125
'26:12.153',-0.245,-0.120
'26:12.156',-0.245,-0.110
'26:12.158',-0.230,-0.130
'26:12.161',-0.225,-0.130
'26:12.164',-0.240,-0.130
'26:12.167',-0.240,-0.135
'26:12.169',-0.230,-0.130
'26:12.172',-0.235,-0.120
'26:12.175',-0.225,-0.120
'26:12.178',-0.225,-0.125
'26:12.181',-0.235,-0.140
'26:12.183',-0.245,-0.130
'26:12.186',-0.230,-0.125
'26:12.189',-0.220,-0.110
'26:12.192',-0.215,-0.120
'26:12.194',-0.215,-0.125
'26:12.197',-0.225,-0.130
'26:12.200',-0.230,-0.140
'26:12.203',-0.225,-0.135
'26:12.206',-0.220,-0.120
'26:12.208',-0.220,-0.120
'26:12.211',-0.215,-0.120
'26:12.214',-0.220,-0.135
'26:12.217',-0.230,-0.140
'26:12.219',-0.225,-0.130
'26:12.222',-0.230,-0.125
'26:12.225',-0.220,-0.125
'26:12.228',-0.230,-0.125
'26:12.231',-0.220,-0.125
'26:12.233',-0.225,-0.130
'26:12.236',-0.230,-0.130
'26:12.239',-0.220,-0.125
'26:12.242',-0.205,-0.120
'26:12.244',-0.210,-0.130
'26:12.247',-0.220,-0.140
'26:12.250',-0.225,-0.150
'26:12.253',-0.230,-0.130
'26:12.256',-0.220,-0.125
'26:12.258',-0.210,-0.120
'26:12.261',-0.220,-0.135
'26:12.264',-0.220,-0.135
'26:12.267',-0.225,-0.140
'26:12.269',-0.225,-0.135
'26:12.272',-0.230,-0.120
'26:12.275',-0.205,-0.120
'26:12.278',-0.210,-0.120
'26:12.281',-0.215,-0.135
'26:12.283',-0.240,-0.140
'26:12.286',-0.225,-0.130
'26:12.289',-0.210,-0.115
'26:12.292',-0.195,-0.120
'26:12.294',-0.205,-0.135
'26:12.297',-0.210,-0.135
'26:12.300',-0.220,-0.145
'26:12.303',-0.220,-0.125
'26:12.306',-0.215,-0.115
'26:12.308',-0.215,-0.125
'26:12.311',-0.210,-0.135
'26:12.314',-0.220,-0.150
'26:12.317',-0.225,-0.135
'26:12.319',-0.220,-0.130
'26:12.322',-0.205,-0.120
'26:12.325',-0.205,-0.130
'26:12.328',-0.210,-0.135
'26:12.331',-0.220,-0.145
'26:12.333',-0.230,-0.140
'26:12.336',-0.230,-0.125
'26:12.339',-0.205,-0.130
'26:12.342',-0.205,-0.120
'26:12.344',-0.200,-0.135
'26:12.347',-0.215,-0.145
'26:12.350',-0.225,-0.140
'26:12.353',-0.210,-0.130
'26:12.356',-0.220,-0.120
'26:12.358',-0.200,-0.120
'26:12.361',-0.195,-0.125
'26:12.364',-0.205,-0.135
'26:12.367',-0.215,-0.135
'26:12.369',-0.210,-0.130
'26:12.372',-0.200,-0.110
'26:12.375',-0.205,-0.130
'26:12.378',-0.200,-0.130
'26:12.381',-0.210,-0.140
'26:12.383',-0.210,-0.135
'26:12.386',-0.205,-0.125
'26:12.389',-0.210,-0.125
'26:12.392',-0.195,-0.130
'26:12.394',-0.205,-0.130
'26:12.397',-0.215,-0.145
'26:12.400',-0.230,-0.135
'26:12.403',-0.205,-0.130
'26:12.406',-0.220,-0.120
'26:12.408',-0.220,-0.125
'26:12.411',-0.210,-0.115
'26:12.414',-0.215,-0.130
'26:12.417',-0.225,-0.130
'26:12.419',-0.215,-0.130
'26:12.422',-0.205,-0.115
'26:12.425',-0.210,-0.120
'26:12.428',-0.225,-0.120
'26:12.431',-0.210,-0.130
'26:12.433',-0.215,-0.140
'26:12.436',-0.210,-0.125
'26:12.439',-0.215,-0.120
'26:12.442',-0.200,-0.120
'26:12.444',-0.190,-0.130
'26:12.447',-0.210,-0.120
'26:12.450',-0.220,-0.130
'26:12.453',-0.220,-0.130
'26:12.456',-0.210,-0.110
'26:12.458',-0.205,-0.125
'26:12.461',-0.205,-0.120
'26:12.464',-0.200,-0.135
'26:12.467',-0.230,-0.145
'26:12.469',-0.215,-0.135
'26:12.472',-0.205,-0.125
'26:12.475',-0.195,-0.130
'26:12.478',-0.200,-0.140
'26:12.481',-0.200,-0.145
'26:12.483',-0.220,-0.140
'26:12.486',-0.205,-0.125
'26:12.489',-0.205,-0.120
'26:12.492',-0.195,-0.125
'26:12.494',-0.200,-0.130
'26:12.497',-0.215,-0.140
'26:12.500',-0.225,-0.140
'26:12.503',-0.215,-0.135
'26:12.506',-0.210,-0.125
'26:12.508',-0.205,-0.115
'26:12.511',-0.195,-0.125
'26:12.514',-0.200,-0.145
'26:12.517',-0.215,-0.145
'26:12.519',-0.205,-0.140
'26:12.522',-0.195,-0.130
'26:12.525',-0.190,-0.125
'26:12.528',-0.210,-0.125
'26:12.531',-0.215,-0.150
'26:12.533',-0.210,-0.145
'26:12.536',-0.210,-0.125
'26:12.539',-0.210,-0.120
'26:12.542',-0.190,-0.120
'26:12.544',-0.200,-0.130
'26:12.547',-0.205,-0.145
'26:12.550',-0.215,-0.135
'26:12.553',-0.195,-0.135
'26:12.556',-0.195,-0.115
'26:12.558',-0.190,-0.120
'26:12.561',-0.200,-0.125
'26:12.564',-0.205,-0.135
'26:12.567',-0.210,-0.135
'26:12.569',-0.195,-0.130
'26:12.572',-0.190,-0.110
'26:12.575',-0.185,-0.120
'26:12.578',-0.190,-0.125
'26:12.581',-0.195,-0.140
'26:12.583',-0.205,-0.145
'26:12.586',-0.190,-0.125
'26:12.589',-0.180,-0.120
'26:12.592',-0.190,-0.135
'26:12.594',-0.190,-0.135
'26:12.597',-0.190,-0.145
'26:12.600',-0.200,-0.130
'26:12.603',-0.195,-0.125
'26:12.606',-0.180,-0.115
'26:12.608',-0.170,-0.135
'26:12.611',-0.180,-0.130
'26:12.614',-0.195,-0.145
'26:12.617',-0.185,-0.140
'26:12.619',-0.190,-0.135
'26:12.622',-0.180,-0.130
'26:12.625',-0.180,-0.125
'26:12.628',-0.175,-0.125
'26:12.631',-0.175,-0.130
'26:12.633',-0.195,-0.140
'26:12.636',-0.195,-0.130
'26:12.639',-0.180,-0.120
'26:12.642',-0.185,-0.125
'26:12.644',-0.175,-0.120
'26:12.647',-0.175,-0.135
'26:12.650',-0.190,-0.125
'26:12.653',-0.185,-0.130
'26:12.656',-0.180,-0.125
'26:12.658',-0.175,-0.125
'26:12.661',-0.175,-0.130
'26:12.664',-0.175,-0.125
'26:12.667',-0.180,-0.135
'26:12.669',-0.175,-0.120
'26:12.672',-0.165,-0.115
'26:12.675',-0.155,-0.120
'26:12.678',-0.160,-0.120
'26:12.681',-0.155,-0.135
'26:12.683',-0.170,-0.140
'26:12.686',-0.170,-0.140
'26:12.689',-0.155,-0.135
'26:12.692',-0.150,-0.125
'26:12.694',-0.135,-0.125
'26:12.697',-0.130,-0.145
'26:12.700',-0.135,-0.165
'26:12.703',-0.130,-0.170
'26:12.706',-0.120,-0.180
'26:12.708',-0.110,-0.190
'26:12.711',-0.115,-0.180
'26:12.714',-0.125,-0.165
'26:12.717',-0.130,-0.175
'26:12.719',-0.135,-0.165
'26:12.722',-0.120,-0.145
'26:12.725',-0.110,-0.165
'26:12.728',-0.110,-0.155
'26:12.731',-0.100,-0.170
'26:12.733',-0.120,-0.175
'26:12.736',-0.125,-0.165
'26:12.739',-0.130,-0.150
'26:12.742',-0.120,-0.140
'26:12.744',-0.130,-0.150
'26:12.747',-0.125,-0.155
'26:12.750',-0.145,-0.160
'26:12.753',-0.130,-0.135
'26:12.756',-0.130,-0.110
'26:12.758',-0.135,-0.105
'26:12.761',-0.145,-0.115
'26:12.764',-0.150,-0.120
'26:12.767',-0.165,-0.135
'26:12.769',-0.175,-0.125
'26:12.772',-0.170,-0.115
'26:12.775',-0.165,-0.110
'26:12.778',-0.175,-0.125
'26:12.781',-0.185,-0.135
'26:12.783',-0.190,-0.135
'26:12.786',-0.190,-0.120
'26:12.789',-0.185,-0.110
'26:12.792',-0.175,-0.125
'26:12.794',-0.180,-0.125
'26:12.797',-0.195,-0.135
'26:12.800',-0.200,-0.125
'26:12.803',-0.185,-0.120
'26:12.806',-0.185,-0.115
'26:12.808',-0.175,-0.120
'26:12.811',-0.175,-0.120
'26:12.814',-0.190,-0.130
'26:12.817',-0.195,-0.125
'26:12.819',-0.200,-0.130
'26:12.822',-0.175,-0.115
'26:12.825',-0.180,-0.110
'26:12.828',-0.180,-0.125
'26:12.831',-0.180,-0.135
'26:12.833',-0.190,-0.135
'26:12.836',-0.180,-0.125
'26:12.839',-0.165,-0.125
'26:12.842',-0.165,-0.120
'26:12.844',-0.165,-0.120
'26:12.847',-0.165,-0.125
'26:12.850',-0.160,-0.105
'26:12.853',-0.155,-0.060
'26:12.856',-0.150,-0.040
'26:12.858',-0.145,-0.050
'26:12.861',-0.120,-0.060
'26:12.864',-0.105,-0.125
'26:12.867',-0.085,-0.200
'26:12.869',-0.050,-0.285
'26:12.872',-0.015,-0.365
'26:12.875',0.040,-0.480
'26:12.878',0.125,-0.610
'26:12.881',0.220,-0.750
'26:12.883',0.305,-0.875
'26:12.886',0.410,-0.990
