'Elapsed time','MLII','V1'
'hh:mm:ss.mmm','mV','mV'
'23:00.000',0.145,-0.190
'23:00.003',0.135,-0.185
'23:00.006',0.130,-0.175
'23:00.008',0.120,-0.180
'23:00.011',0.115,-0.155
'23:00.014',0.110,-0.145
'23:00.017',0.095,-0.110
'23:00.019',0.085,-0.100
'23:00.022',0.075,-0.075
'23:00.025',0.065,-0.070
'23:00.028',0.045,-0.090
'23:00.031',0.030,-0.085
'23:00.033',-0.005,-0.080
'23:00.036',-0.010,-0.075
'23:00.039',-0.010,-0.045
'23:00.042',-0.025,-0.015
'23:00.044',-0.030,0.005
'23:00.047',-0.035,0.010
'23:00.050',-0.040,0.005
'23:00.053',-0.055,0.020
'23:00.056',-0.065,0.005
'23:00.058',-0.080,0.015
'23:00.061',-0.105,0.025
'23:00.064',-0.125,0.035
'23:00.067',-0.125,0.025
'23:00.069',-0.130,0.040
'23:00.072',-0.135,0.030
'23:00.075',-0.145,0.030
'23:00.078',-0.140,0.040
'23:00.081',-0.145,0.045
'23:00.083',-0.155,0.045
'23:00.086',-0.160,0.035
'23:00.089',-0.150,0.045
'23:00.092',-0.160,0.035
'23:00.094',-0.165,0.025
'23:00.097',-0.185,0.025
'23:00.100',-0.175,0.035
'23:00.103',-0.180,0.055
'23:00.106',-0.175,0.060
'23:00.108',-0.180,0.055
'23:00.111',-0.175,0.065
'23:00.114',-0.170,0.075
'23:00.117',-0.170,0.050
'23:00.119',-0.170,0.050
'23:00.122',-0.170,0.035
'23:00.125',-0.175,0.030
'23:00.128',-0.190,0.020
'23:00.131',-0.195,0.030
'23:00.133',-0.215,0.030
'23:00.136',-0.225,0.035
'23:00.139',-0.220,0.045
'23:00.142',-0.225,0.045
'23:00.144',-0.235,0.060
'23:00.147',-0.225,0.040
'23:00.150',-0.215,0.040
'23:00.153',-0.210,0.030
'23:00.156',-0.215,0.025
'23:00.158',-0.215,0.025
'23:00.161',-0.225,0.020
'23:00.164',-0.235,0.005
'23:00.167',-0.230,-0.010
'23:00.169',-0.235,-0.015
'23:00.172',-0.215,-0.025
'23:00.175',-0.210,-0.030
'23:00.178',-0.200,-0.020
'23:00.181',-0.195,-0.045
'23:00.183',-0.190,-0.035
'23:00.186',-0.175,-0.035
'23:00.189',-0.185,-0.035
'23:00.192',-0.175,-0.040
'23:00.194',-0.170,-0.030
'23:00.197',-0.175,-0.010
'23:00.200',-0.165,0.000
'23:00.203',-0.155,0.015
'23:00.206',-0.140,0.010
'23:00.208',-0.150,0.015
'23:00.211',-0.135,0.020
'23:00.214',-0.140,0.020
'23:00.217',-0.155,0.020
'23:00.219',-0.160,0.020
'23:00.222',-0.160,0.010
'23:00.225',-0.170,0.005
'23:00.228',-0.185,-0.005
'23:00.231',-0.185,0.000
'23:00.233',-0.185,-0.005
'23:00.236',-0.185,0.005
'23:00.239',-0.180,0.005
'23:00.242',-0.175,0.000
'23:00.244',-0.175,0.005
'23:00.247',-0.175,0.010
'23:00.250',-0.190,0.010
'23:00.253',-0.190,0.005
'23:00.256',-0.180,0.000
'23:00.258',-0.190,0.000
'23:00.261',-0.170,-0.005
'23:00.264',-0.170,0.000
'23:00.267',-0.160,0.020
'23:00.269',-0.150,0.025
'23:00.272',-0.160,0.045
'23:00.275',-0.170,0.055
'23:00.278',-0.170,0.060
'23:00.281',-0.180,0.060
'23:00.283',-0.185,0.045
'23:00.286',-0.180,0.050
'23:00.289',-0.180,0.035
'23:00.292',-0.180,0.045
'23:00.294',-0.180,0.045
'23:00.297',-0.180,0.030
'23:00.300',-0.185,0.035
'23:00.303',-0.190,0.040
'23:00.306',-0.195,0.050
'23:00.308',-0.175,0.045
'23:00.311',-0.180,0.055
'23:00.314',-0.175,0.060
'23:00.317',-0.165,0.055
'23:00.319',-0.155,0.060
'23:00.322',-0.155,0.055
'23:00.325',-0.160,0.050
'23:00.328',-0.170,0.060
'23:00.331',-0.195,0.040
'23:00.333',-0.180,0.050
'23:00.336',-0.190,0.050
'23:00.339',-0.185,0.050
'23:00.342',-0.190,0.025
'23:00.344',-0.180,0.010
'23:00.347',-0.175,0.005
'23:00.350',-0.185,0.010
'23:00.353',-0.180,0.020
'23:00.356',-0.150,0.025
'23:00.358',-0.165,0.015
'23:00.361',-0.150,0.020
'23:00.364',-0.155,0.015
'23:00.367',-0.180,0.000
'23:00.369',-0.170,0.015
'23:00.372',-0.160,0.020
'23:00.375',-0.155,0.040
'23:00.378',-0.140,0.045
'23:00.381',-0.120,0.065
'23:00.383',-0.100,0.070
'23:00.386',-0.095,0.085
'23:00.389',-0.050,0.075
'23:00.392',0.000,0.055
'23:00.394',0.070,0.025
'23:00.397',0.170,-0.035
'23:00.400',0.285,-0.110
'23:00.403',0.405,-0.200
'23:00.406',0.525,-0.270
'23:00.408',0.600,-0.335
'23:00.411',0.605,-0.390
'23:00.414',0.510,-0.425
'23:00.417',0.320,-0.445
'23:00.419',0.060,-0.425
'23:00.422',-0.180,-0.355
'23:00.425',-0.370,-0.265
'23:00.428',-0.465,-0.135
'23:00.431',-0.500,-0.010
'23:00.433',-0.490,0.110
'23:00.436',-0.460,0.195
'23:00.439',-0.450,0.240
'23:00.442',-0.415,0.255
'23:00.444',-0.395,0.260
'23:00.447',-0.375,0.240
'23:00.450',-0.370,0.260
'23:00.453',-0.375,0.250
'23:00.456',-0.380,0.255
'23:00.458',-0.405,0.280
'23:00.461',-0.425,0.305
'23:00.464',-0.410,0.330
'23:00.467',-0.400,0.360
'23:00.469',-0.360,0.395
'23:00.472',-0.305,0.420
'23:00.475',-0.285,0.430
'23:00.478',-0.270,0.445
'23:00.481',-0.280,0.445
'23:00.483',-0.300,0.450
'23:00.486',-0.310,0.450
'23:00.489',-0.325,0.420
'23:00.492',-0.325,0.375
'23:00.494',-0.330,0.325
'23:00.497',-0.310,0.250
'23:00.500',-0.310,0.165
'23:00.503',-0.275,0.105
'23:00.506',-0.255,0.065
'23:00.508',-0.210,0.030
'23:00.511',-0.195,0.030
'23:00.514',-0.180,0.010
'23:00.517',-0.180,0.010
'23:00.519',-0.165,-0.005
'23:00.522',-0.180,-0.030
'23:00.525',-0.185,-0.050
'23:00.528',-0.195,-0.090
'23:00.531',-0.185,-0.090
'23:00.533',-0.190,-0.115
'23:00.536',-0.180,-0.105
'23:00.539',-0.190,-0.095
'23:00.542',-0.180,-0.080
'23:00.544',-0.180,-0.055
'23:00.547',-0.175,-0.065
'23:00.550',-0.175,-0.075
'23:00.553',-0.170,-0.080
'23:00.556',-0.180,-0.085
'23:00.558',-0.185,-0.080
'23:00.561',-0.195,-0.090
'23:00.564',-0.200,-0.085
'23:00.567',-0.190,-0.085
'23:00.569',-0.195,-0.095
'23:00.572',-0.185,-0.085
'23:00.575',-0.185,-0.065
'23:00.578',-0.170,-0.070
'23:00.581',-0.165,-0.055
'23:00.583',-0.160,-0.045
'23:00.586',-0.170,-0.055
'23:00.589',-0.170,-0.065
'23:00.592',-0.180,-0.075
'23:00.594',-0.175,-0.080
'23:00.597',-0.170,-0.105
'23:00.600',-0.175,-0.115
'23:00.603',-0.160,-0.130
'23:00.606',-0.160,-0.110
'23:00.608',-0.150,-0.110
'23:00.611',-0.145,-0.085
'23:00.614',-0.140,-0.080
'23:00.617',-0.145,-0.090
'23:00.619',-0.145,-0.095
'23:00.622',-0.145,-0.105
'23:00.625',-0.150,-0.105
'23:00.628',-0.150,-0.105
'23:00.631',-0.150,-0.110
'23:00.633',-0.155,-0.110
'23:00.636',-0.135,-0.100
'23:00.639',-0.130,-0.120
'23:00.642',-0.120,-0.120
'23:00.644',-0.120,-0.105
'23:00.647',-0.100,-0.115
'23:00.650',-0.085,-0.100
'23:00.653',-0.080,-0.120
'23:00.656',-0.075,-0.120
'23:00.658',-0.075,-0.130
'23:00.661',-0.070,-0.145
'23:00.664',-0.060,-0.170
'23:00.667',-0.050,-0.190
'23:00.669',-0.055,-0.210
'23:00.672',-0.050,-0.195
'23:00.675',-0.035,-0.190
'23:00.678',-0.030,-0.160
'23:00.681',0.000,-0.160
'23:00.683',0.005,-0.170
'23:00.686',0.015,-0.190
'23:00.689',0.015,-0.200
'23:00.692',0.030,-0.225
'23:00.694',0.030,-0.235
'23:00.697',0.030,-0.230
'23:00.700',0.040,-0.255
'23:00.703',0.045,-0.250
'23:00.706',0.050,-0.240
'23:00.708',0.055,-0.245
'23:00.711',0.080,-0.240
'23:00.714',0.100,-0.235
'23:00.717',0.085,-0.245
'23:00.719',0.090,-0.235
'23:00.722',0.090,-0.230
'23:00.725',0.080,-0.220
'23:00.728',0.095,-0.220
'23:00.731',0.095,-0.195
'23:00.733',0.075,-0.185
'23:00.736',0.060,-0.170
'23:00.739',0.035,-0.165
'23:00.742',0.000,-0.175
'23:00.744',-0.010,-0.165
'23:00.747',-0.010,-0.150
'23:00.750',-0.025,-0.140
'23:00.753',-0.045,-0.115
'23:00.756',-0.070,-0.100
'23:00.758',-0.080,-0.085
'23:00.761',-0.085,-0.080
'23:00.764',-0.080,-0.055
'23:00.767',-0.110,-0.045
'23:00.769',-0.115,-0.040
'23:00.772',-0.135,-0.030
'23:00.775',-0.145,-0.045
'23:00.778',-0.145,-0.025
'23:00.781',-0.150,-0.020
'23:00.783',-0.150,-0.005
'23:00.786',-0.165,-0.005
'23:00.789',-0.175,-0.010
'23:00.792',-0.185,-0.020
'23:00.794',-0.190,-0.020
'23:00.797',-0.195,-0.020
'23:00.800',-0.200,-0.015
'23:00.803',-0.200,0.000
'23:00.806',-0.200,-0.005
'23:00.808',-0.195,-0.005
'23:00.811',-0.195,-0.005
'23:00.814',-0.185,-0.005
'23:00.817',-0.185,-0.025
'23:00.819',-0.185,-0.025
'23:00.822',-0.195,-0.030
'23:00.825',-0.205,-0.040
'23:00.828',-0.215,-0.030
'23:00.831',-0.235,-0.050
'23:00.833',-0.235,-0.055
'23:00.836',-0.240,-0.055
'23:00.839',-0.250,-0.050
'23:00.842',-0.235,-0.050
'23:00.844',-0.220,-0.040
'23:00.847',-0.205,-0.015
'23:00.850',-0.205,-0.030
'23:00.853',-0.215,-0.025
'23:00.856',-0.225,-0.040
'23:00.858',-0.210,-0.040
'23:00.861',-0.240,-0.060
'23:00.864',-0.240,-0.065
'23:00.867',-0.245,-0.055
'23:00.869',-0.270,-0.045
'23:00.872',-0.280,-0.045
'23:00.875',-0.270,-0.040
'23:00.878',-0.275,-0.050
'23:00.881',-0.260,-0.055
'23:00.883',-0.245,-0.080
'23:00.886',-0.250,-0.080
'23:00.889',-0.250,-0.105
'23:00.892',-0.275,-0.120
'23:00.894',-0.285,-0.110
'23:00.897',-0.295,-0.105
'23:00.900',-0.295,-0.080
'23:00.903',-0.305,-0.065
'23:00.906',-0.265,-0.075
'23:00.908',-0.260,-0.090
'23:00.911',-0.235,-0.120
'23:00.914',-0.230,-0.120
'23:00.917',-0.230,-0.125
'23:00.919',-0.230,-0.100
'23:00.922',-0.230,-0.090
'23:00.925',-0.215,-0.070
'23:00.928',-0.210,-0.070
'23:00.931',-0.210,-0.075
'23:00.933',-0.215,-0.085
'23:00.936',-0.210,-0.085
'23:00.939',-0.195,-0.090
'23:00.942',-0.215,-0.070
'23:00.944',-0.220,-0.065
'23:00.947',-0.215,-0.055
'23:00.950',-0.220,-0.055
'23:00.953',-0.240,-0.050
'23:00.956',-0.245,-0.065
'23:00.958',-0.255,-0.075
'23:00.961',-0.270,-0.085
'23:00.964',-0.275,-0.100
'23:00.967',-0.270,-0.090
'23:00.969',-0.270,-0.090
'23:00.972',-0.275,-0.080
'23:00.975',-0.265,-0.075
'23:00.978',-0.270,-0.050
'23:00.981',-0.260,-0.040
'23:00.983',-0.250,-0.030
'23:00.986',-0.250,-0.020
'23:00.989',-0.255,-0.030
'23:00.992',-0.235,-0.035
'23:00.994',-0.220,-0.045
'23:00.997',-0.230,-0.045
'23:01.000',-0.230,-0.035
'23:01.003',-0.220,-0.025
'23:01.006',-0.240,-0.010
'23:01.008',-0.230,0.000
'23:01.011',-0.235,0.015
'23:01.014',-0.225,0.000
'23:01.017',-0.230,-0.015
'23:01.019',-0.230,-0.030
'23:01.022',-0.230,-0.045
'23:01.025',-0.225,-0.065
'23:01.028',-0.230,-0.070
'23:01.031',-0.225,-0.090
'23:01.033',-0.235,-0.115
'23:01.036',-0.230,-0.135
'23:01.039',-0.220,-0.140
'23:01.042',-0.205,-0.140
'23:01.044',-0.205,-0.130
'23:01.047',-0.200,-0.145
'23:01.050',-0.185,-0.160
'23:01.053',-0.190,-0.170
'23:01.056',-0.185,-0.195
'23:01.058',-0.180,-0.200
'23:01.061',-0.190,-0.210
'23:01.064',-0.190,-0.185
'23:01.067',-0.185,-0.185
'23:01.069',-0.190,-0.180
'23:01.072',-0.185,-0.160
'23:01.075',-0.180,-0.160
'23:01.078',-0.180,-0.140
'23:01.081',-0.180,-0.135
'23:01.083',-0.175,-0.120
'23:01.086',-0.170,-0.105
'23:01.089',-0.180,-0.085
'23:01.092',-0.170,-0.065
'23:01.094',-0.180,-0.055
'23:01.097',-0.175,-0.040
'23:01.100',-0.170,-0.040
'23:01.103',-0.160,-0.025
'23:01.106',-0.140,-0.030
'23:01.108',-0.120,-0.035
'23:01.111',-0.080,-0.050
'23:01.114',-0.020,-0.065
'23:01.117',0.070,-0.080
'23:01.119',0.175,-0.100
'23:01.122',0.315,-0.145
'23:01.125',0.445,-0.200
'23:01.128',0.570,-0.270
'23:01.131',0.675,-0.325
'23:01.133',0.715,-0.370
'23:01.136',0.655,-0.395
'23:01.139',0.490,-0.405
'23:01.142',0.225,-0.380
'23:01.144',-0.070,-0.310
'23:01.147',-0.300,-0.195
'23:01.150',-0.450,-0.080
'23:01.153',-0.515,0.050
'23:01.156',-0.515,0.155
'23:01.158',-0.490,0.215
'23:01.161',-0.460,0.230
'23:01.164',-0.435,0.235
'23:01.167',-0.410,0.235
'23:01.169',-0.395,0.240
'23:01.172',-0.375,0.255
'23:01.175',-0.390,0.280
'23:01.178',-0.410,0.310
'23:01.181',-0.415,0.330
'23:01.183',-0.410,0.355
'23:01.186',-0.395,0.355
'23:01.189',-0.370,0.370
'23:01.192',-0.320,0.390
'23:01.194',-0.295,0.400
'23:01.197',-0.275,0.410
'23:01.200',-0.285,0.440
'23:01.203',-0.295,0.455
'23:01.206',-0.320,0.480
'23:01.208',-0.330,0.475
'23:01.211',-0.335,0.465
'23:01.214',-0.320,0.425
'23:01.217',-0.320,0.365
'23:01.219',-0.310,0.330
'23:01.222',-0.295,0.280
'23:01.225',-0.270,0.225
'23:01.228',-0.270,0.165
'23:01.231',-0.245,0.105
'23:01.233',-0.240,0.050
'23:01.236',-0.205,-0.005
'23:01.239',-0.195,-0.025
'23:01.242',-0.190,-0.025
'23:01.244',-0.185,0.005
'23:01.247',-0.180,0.005
'23:01.250',-0.165,0.010
'23:01.253',-0.175,0.010
'23:01.256',-0.180,-0.005
'23:01.258',-0.165,-0.005
'23:01.261',-0.180,-0.025
'23:01.264',-0.190,-0.025
'23:01.267',-0.195,-0.035
'23:01.269',-0.185,-0.030
'23:01.272',-0.180,-0.015
'23:01.275',-0.180,0.005
'23:01.278',-0.175,0.015
'23:01.281',-0.170,0.015
'23:01.283',-0.165,0.000
'23:01.286',-0.175,-0.010
'23:01.289',-0.170,-0.020
'23:01.292',-0.170,-0.035
'23:01.294',-0.165,-0.060
'23:01.297',-0.160,-0.065
'23:01.300',-0.165,-0.065
'23:01.303',-0.155,-0.050
'23:01.306',-0.145,-0.040
'23:01.308',-0.140,-0.030
'23:01.311',-0.130,0.000
'23:01.314',-0.120,0.000
'23:01.317',-0.125,-0.010
'23:01.319',-0.115,-0.030
'23:01.322',-0.120,-0.050
'23:01.325',-0.135,-0.055
'23:01.328',-0.150,-0.075
'23:01.331',-0.150,-0.090
'23:01.333',-0.140,-0.075
'23:01.336',-0.150,-0.085
'23:01.339',-0.140,-0.080
'23:01.342',-0.110,-0.060
'23:01.344',-0.100,-0.045
'23:01.347',-0.075,-0.055
'23:01.350',-0.065,-0.070
'23:01.353',-0.070,-0.065
'23:01.356',-0.070,-0.090
'23:01.358',-0.075,-0.090
'23:01.361',-0.080,-0.100
'23:01.364',-0.070,-0.095
'23:01.367',-0.055,-0.105
'23:01.369',-0.050,-0.100
'23:01.372',-0.035,-0.100
'23:01.375',-0.010,-0.085
'23:01.378',0.010,-0.090
'23:01.381',0.015,-0.105
'23:01.383',0.025,-0.110
'23:01.386',0.020,-0.115
'23:01.389',0.035,-0.120
'23:01.392',0.050,-0.135
'23:01.394',0.050,-0.145
'23:01.397',0.045,-0.145
'23:01.400',0.050,-0.155
'23:01.403',0.060,-0.160
'23:01.406',0.070,-0.155
'23:01.408',0.080,-0.145
'23:01.411',0.095,-0.145
'23:01.414',0.100,-0.145
'23:01.417',0.105,-0.160
'23:01.419',0.115,-0.150
'23:01.422',0.125,-0.160
'23:01.425',0.120,-0.170
'23:01.428',0.120,-0.175
'23:01.431',0.120,-0.170
'23:01.433',0.110,-0.175
'23:01.436',0.120,-0.165
'23:01.439',0.130,-0.150
'23:01.442',0.130,-0.140
'23:01.444',0.140,-0.135
'23:01.447',0.145,-0.115
'23:01.450',0.135,-0.120
'23:01.453',0.125,-0.110
'23:01.456',0.105,-0.110
'23:01.458',0.080,-0.100
'23:01.461',0.065,-0.085
'23:01.464',0.040,-0.085
'23:01.467',0.015,-0.060
'23:01.469',0.015,-0.040
'23:01.472',0.000,-0.025
'23:01.475',-0.005,-0.010
'23:01.478',-0.010,0.005
'23:01.481',-0.020,0.010
'23:01.483',-0.050,0.020
'23:01.486',-0.060,0.035
'23:01.489',-0.070,0.035
'23:01.492',-0.080,0.035
'23:01.494',-0.100,0.030
'23:01.497',-0.110,0.030
'23:01.500',-0.125,0.045
'23:01.503',-0.140,0.045
'23:01.506',-0.155,0.070
'23:01.508',-0.150,0.080
'23:01.511',-0.135,0.080
'23:01.514',-0.120,0.065
'23:01.517',-0.125,0.070
'23:01.519',-0.125,0.070
'23:01.522',-0.135,0.075
'23:01.525',-0.155,0.070
'23:01.528',-0.165,0.055
'23:01.531',-0.195,0.035
'23:01.533',-0.210,0.035
'23:01.536',-0.200,0.030
'23:01.539',-0.185,0.045
'23:01.542',-0.185,0.055
'23:01.544',-0.180,0.080
'23:01.547',-0.165,0.075
'23:01.550',-0.170,0.060
'23:01.553',-0.165,0.075
'23:01.556',-0.170,0.055
'23:01.558',-0.170,0.045
'23:01.561',-0.175,0.045
'23:01.564',-0.185,0.035
'23:01.567',-0.185,0.035
'23:01.569',-0.190,0.030
'23:01.572',-0.175,0.035
'23:01.575',-0.170,0.045
'23:01.578',-0.170,0.050
'23:01.581',-0.150,0.050
'23:01.583',-0.160,0.055
'23:01.586',-0.155,0.045
'23:01.589',-0.165,0.045
'23:01.592',-0.180,0.055
'23:01.594',-0.195,0.060
'23:01.597',-0.200,0.055
'23:01.600',-0.215,0.060
'23:01.603',-0.235,0.050
'23:01.606',-0.215,0.035
'23:01.608',-0.205,0.020
'23:01.611',-0.190,0.005
'23:01.614',-0.195,-0.005
'23:01.617',-0.195,-0.005
'23:01.619',-0.195,0.000
'23:01.622',-0.190,-0.015
'23:01.625',-0.195,-0.040
'23:01.628',-0.180,-0.055
'23:01.631',-0.185,-0.050
'23:01.633',-0.180,-0.050
'23:01.636',-0.180,-0.035
'23:01.639',-0.170,-0.015
'23:01.642',-0.165,0.005
'23:01.644',-0.150,0.010
'23:01.647',-0.135,0.010
'23:01.650',-0.125,-0.005
'23:01.653',-0.115,-0.005
'23:01.656',-0.105,0.000
'23:01.658',-0.115,-0.010
'23:01.661',-0.125,-0.010
'23:01.664',-0.135,0.000
'23:01.667',-0.145,0.010
'23:01.669',-0.170,0.005
'23:01.672',-0.175,0.000
'23:01.675',-0.160,0.000
'23:01.678',-0.160,-0.020
'23:01.681',-0.145,-0.015
'23:01.683',-0.150,-0.010
'23:01.686',-0.145,0.000
'23:01.689',-0.160,0.005
'23:01.692',-0.170,0.005
'23:01.694',-0.170,0.000
'23:01.697',-0.185,0.005
'23:01.700',-0.185,0.005
'23:01.703',-0.175,0.010
'23:01.706',-0.155,0.015
'23:01.708',-0.145,0.035
'23:01.711',-0.120,0.040
'23:01.714',-0.110,0.055
'23:01.717',-0.105,0.050
'23:01.719',-0.110,0.060
'23:01.722',-0.120,0.060
'23:01.725',-0.150,0.045
'23:01.728',-0.180,0.045
'23:01.731',-0.185,0.040
'23:01.733',-0.180,0.050
'23:01.736',-0.170,0.050
'23:01.739',-0.165,0.060
'23:01.742',-0.160,0.070
'23:01.744',-0.150,0.090
'23:01.747',-0.150,0.085
'23:01.750',-0.150,0.090
'23:01.753',-0.150,0.080
'23:01.756',-0.160,0.085
'23:01.758',-0.155,0.080
'23:01.761',-0.150,0.080
'23:01.764',-0.165,0.075
'23:01.767',-0.170,0.070
'23:01.769',-0.160,0.070
'23:01.772',-0.150,0.065
'23:01.775',-0.145,0.060
'23:01.778',-0.135,0.075
'23:01.781',-0.135,0.070
'23:01.783',-0.135,0.070
'23:01.786',-0.140,0.070
'23:01.789',-0.125,0.065
'23:01.792',-0.140,0.050
'23:01.794',-0.145,0.035
'23:01.797',-0.150,0.035
'23:01.800',-0.170,0.040
'23:01.803',-0.175,0.055
'23:01.806',-0.155,0.060
'23:01.808',-0.150,0.070
'23:01.811',-0.145,0.085
'23:01.814',-0.120,0.080
'23:01.817',-0.110,0.080
'23:01.819',-0.120,0.080
'23:01.822',-0.110,0.080
'23:01.825',-0.110,0.075
'23:01.828',-0.110,0.080
'23:01.831',-0.100,0.090
'23:01.833',-0.090,0.095
'23:01.836',-0.075,0.115
'23:01.839',-0.025,0.130
'23:01.842',0.030,0.150
'23:01.844',0.105,0.140
'23:01.847',0.215,0.115
'23:01.850',0.330,0.070
'23:01.853',0.445,0.000
'23:01.856',0.560,-0.090
'23:01.858',0.655,-0.180
'23:01.861',0.705,-0.260
'23:01.864',0.650,-0.335
'23:01.867',0.475,-0.355
'23:01.869',0.210,-0.345
'23:01.872',-0.070,-0.285
'23:01.875',-0.300,-0.200
'23:01.878',-0.445,-0.060
'23:01.881',-0.515,0.075
'23:01.883',-0.525,0.200
'23:01.886',-0.500,0.290
'23:01.889',-0.440,0.340
'23:01.892',-0.385,0.340
'23:01.894',-0.355,0.335
'23:01.897',-0.345,0.330
'23:01.900',-0.350,0.325
'23:01.903',-0.365,0.350
'23:01.906',-0.360,0.390
'23:01.908',-0.330,0.420
'23:01.911',-0.290,0.470
'23:01.914',-0.245,0.495
'23:01.917',-0.235,0.500
'23:01.919',-0.225,0.520
'23:01.922',-0.240,0.520
'23:01.925',-0.275,0.530
'23:01.928',-0.305,0.515
'23:01.931',-0.310,0.500
'23:01.933',-0.310,0.465
'23:01.936',-0.295,0.425
'23:01.939',-0.285,0.395
'23:01.942',-0.260,0.340
'23:01.944',-0.230,0.285
'23:01.947',-0.205,0.215
'23:01.950',-0.170,0.140
'23:01.953',-0.155,0.075
'23:01.956',-0.140,0.035
'23:01.958',-0.120,0.000
'23:01.961',-0.115,-0.010
'23:01.964',-0.125,-0.020
'23:01.967',-0.130,0.000
'23:01.969',-0.145,0.005
'23:01.972',-0.130,0.015
'23:01.975',-0.100,0.010
'23:01.978',-0.105,0.020
'23:01.981',-0.100,0.030
'23:01.983',-0.110,0.015
'23:01.986',-0.110,0.020
'23:01.989',-0.115,0.000
'23:01.992',-0.125,-0.010
'23:01.994',-0.140,-0.020
'23:01.997',-0.140,-0.020
'23:02.000',-0.155,-0.020
'23:02.003',-0.135,-0.010
'23:02.006',-0.125,0.005
'23:02.008',-0.130,-0.010
'23:02.011',-0.110,0.010
'23:02.014',-0.100,0.005
'23:02.017',-0.105,-0.010
'23:02.019',-0.100,-0.010
'23:02.022',-0.100,-0.020
'23:02.025',-0.100,-0.020
'23:02.028',-0.110,-0.015
'23:02.031',-0.105,-0.015
'23:02.033',-0.100,-0.020
'23:02.036',-0.095,-0.020
'23:02.039',-0.105,-0.005
'23:02.042',-0.090,-0.020
'23:02.044',-0.085,-0.020
'23:02.047',-0.080,-0.015
'23:02.050',-0.075,-0.030
'23:02.053',-0.070,-0.030
'23:02.056',-0.075,-0.035
'23:02.058',-0.080,-0.045
'23:02.061',-0.080,-0.050
'23:02.064',-0.090,-0.055
'23:02.067',-0.090,-0.050
'23:02.069',-0.080,-0.045
'23:02.072',-0.070,-0.035
'23:02.075',-0.045,-0.030
'23:02.078',-0.030,-0.010
'23:02.081',-0.015,-0.025
'23:02.083',-0.015,-0.040
'23:02.086',0.005,-0.045
'23:02.089',0.005,-0.070
'23:02.092',0.020,-0.085
'23:02.094',0.025,-0.095
'23:02.097',0.030,-0.095
'23:02.100',0.035,-0.075
'23:02.103',0.055,-0.060
'23:02.106',0.065,-0.070
'23:02.108',0.075,-0.090
'23:02.111',0.080,-0.105
'23:02.114',0.090,-0.120
'23:02.117',0.105,-0.125
'23:02.119',0.110,-0.125
'23:02.122',0.120,-0.125
'23:02.125',0.125,-0.130
'23:02.128',0.130,-0.145
'23:02.131',0.135,-0.170
'23:02.133',0.135,-0.170
'23:02.136',0.135,-0.185
'23:02.139',0.155,-0.170
'23:02.142',0.155,-0.140
'23:02.144',0.165,-0.135
'23:02.147',0.190,-0.140
'23:02.150',0.200,-0.145
'23:02.153',0.200,-0.150
'23:02.156',0.190,-0.160
'23:02.158',0.190,-0.160
'23:02.161',0.190,-0.170
'23:02.164',0.180,-0.165
'23:02.167',0.170,-0.140
'23:02.169',0.160,-0.110
'23:02.172',0.140,-0.070
'23:02.175',0.130,-0.070
'23:02.178',0.110,-0.065
'23:02.181',0.110,-0.070
'23:02.183',0.085,-0.080
'23:02.186',0.075,-0.065
'23:02.189',0.060,-0.060
'23:02.192',0.045,-0.040
'23:02.194',0.025,-0.035
'23:02.197',0.000,-0.025
'23:02.200',-0.025,-0.010
'23:02.203',-0.025,-0.005
'23:02.206',-0.040,0.020
'23:02.208',-0.045,0.035
'23:02.211',-0.055,0.045
'23:02.214',-0.060,0.055
'23:02.217',-0.065,0.050
'23:02.219',-0.060,0.045
'23:02.222',-0.065,0.045
'23:02.225',-0.090,0.060
'23:02.228',-0.100,0.050
'23:02.231',-0.105,0.035
'23:02.233',-0.095,0.050
'23:02.236',-0.125,0.050
'23:02.239',-0.120,0.060
'23:02.242',-0.120,0.065
'23:02.244',-0.120,0.080
'23:02.247',-0.120,0.085
'23:02.250',-0.125,0.070
'23:02.253',-0.140,0.070
'23:02.256',-0.145,0.055
'23:02.258',-0.145,0.060
'23:02.261',-0.145,0.040
'23:02.264',-0.145,0.050
'23:02.267',-0.155,0.055
'23:02.269',-0.160,0.055
'23:02.272',-0.145,0.060
'23:02.275',-0.140,0.085
'23:02.278',-0.130,0.075
'23:02.281',-0.125,0.075
'23:02.283',-0.125,0.065
'23:02.286',-0.120,0.070
'23:02.289',-0.135,0.055
'23:02.292',-0.130,0.060
'23:02.294',-0.140,0.050
'23:02.297',-0.145,0.055
'23:02.300',-0.150,0.055
'23:02.303',-0.155,0.055
'23:02.306',-0.165,0.070
'23:02.308',-0.165,0.090
'23:02.311',-0.165,0.090
'23:02.314',-0.160,0.085
'23:02.317',-0.170,0.065
'23:02.319',-0.185,0.050
'23:02.322',-0.180,0.045
'23:02.325',-0.185,0.035
'23:02.328',-0.180,0.010
'23:02.331',-0.190,-0.010
'23:02.333',-0.185,-0.020
'23:02.336',-0.175,-0.020
'23:02.339',-0.170,-0.010
'23:02.342',-0.165,0.005
'23:02.344',-0.155,0.035
'23:02.347',-0.140,0.045
'23:02.350',-0.135,0.040
'23:02.353',-0.155,0.035
'23:02.356',-0.140,0.030
'23:02.358',-0.150,0.010
'23:02.361',-0.145,0.000
'23:02.364',-0.150,-0.005
'23:02.367',-0.125,0.010
'23:02.369',-0.120,0.025
'23:02.372',-0.110,0.040
'23:02.375',-0.105,0.055
'23:02.378',-0.105,0.055
'23:02.381',-0.105,0.050
'23:02.383',-0.125,0.020
'23:02.386',-0.125,0.005
'23:02.389',-0.135,-0.005
'23:02.392',-0.145,-0.005
'23:02.394',-0.140,-0.005
'23:02.397',-0.135,-0.010
'23:02.400',-0.155,0.010
'23:02.403',-0.150,0.015
'23:02.406',-0.145,0.020
'23:02.408',-0.135,0.015
'23:02.411',-0.140,0.010
'23:02.414',-0.140,0.010
'23:02.417',-0.145,0.030
'23:02.419',-0.150,0.030
'23:02.422',-0.130,0.035
'23:02.425',-0.130,0.030
'23:02.428',-0.120,0.015
'23:02.431',-0.125,0.015
'23:02.433',-0.110,0.025
'23:02.436',-0.105,0.030
'23:02.439',-0.110,0.045
'23:02.442',-0.120,0.070
'23:02.444',-0.125,0.080
'23:02.447',-0.125,0.085
'23:02.450',-0.135,0.065
'23:02.453',-0.135,0.055
'23:02.456',-0.140,0.045
'23:02.458',-0.140,0.035
'23:02.461',-0.135,0.040
'23:02.464',-0.150,0.040
'23:02.467',-0.145,0.065
'23:02.469',-0.140,0.065
'23:02.472',-0.145,0.075
'23:02.475',-0.125,0.080
'23:02.478',-0.135,0.075
'23:02.481',-0.110,0.060
'23:02.483',-0.125,0.060
'23:02.486',-0.130,0.045
'23:02.489',-0.125,0.045
'23:02.492',-0.130,0.035
'23:02.494',-0.135,0.030
'23:02.497',-0.140,0.015
'23:02.500',-0.130,0.020
'23:02.503',-0.125,0.025
'23:02.506',-0.130,0.040
'23:02.508',-0.130,0.055
'23:02.511',-0.120,0.060
'23:02.514',-0.115,0.055
'23:02.517',-0.120,0.030
'23:02.519',-0.125,0.030
'23:02.522',-0.115,0.015
'23:02.525',-0.110,0.010
'23:02.528',-0.120,0.025
'23:02.531',-0.130,0.020
'23:02.533',-0.140,0.015
'23:02.536',-0.135,0.020
'23:02.539',-0.135,0.030
'23:02.542',-0.115,0.025
'23:02.544',-0.105,0.035
'23:02.547',-0.085,0.040
'23:02.550',-0.080,0.050
'23:02.553',-0.055,0.065
'23:02.556',-0.035,0.065
'23:02.558',-0.015,0.075
'23:02.561',0.010,0.085
'23:02.564',0.060,0.075
'23:02.567',0.135,0.080
'23:02.569',0.230,0.040
'23:02.572',0.340,-0.010
'23:02.575',0.460,-0.075
'23:02.578',0.575,-0.155
'23:02.581',0.660,-0.225
'23:02.583',0.670,-0.295
'23:02.586',0.575,-0.360
'23:02.589',0.365,-0.395
'23:02.592',0.090,-0.375
'23:02.594',-0.160,-0.340
'23:02.597',-0.370,-0.255
'23:02.600',-0.470,-0.150
'23:02.603',-0.500,-0.015
'23:02.606',-0.500,0.110
'23:02.608',-0.470,0.215
'23:02.611',-0.425,0.280
'23:02.614',-0.400,0.300
'23:02.617',-0.370,0.315
'23:02.619',-0.355,0.335
'23:02.622',-0.335,0.345
'23:02.625',-0.335,0.350
'23:02.628',-0.350,0.365
'23:02.631',-0.355,0.375
'23:02.633',-0.350,0.385
'23:02.636',-0.340,0.405
'23:02.639',-0.300,0.420
'23:02.642',-0.260,0.450
'23:02.644',-0.240,0.470
'23:02.647',-0.240,0.505
'23:02.650',-0.250,0.525
'23:02.653',-0.265,0.535
'23:02.656',-0.285,0.525
'23:02.658',-0.290,0.485
'23:02.661',-0.290,0.440
'23:02.664',-0.285,0.395
'23:02.667',-0.280,0.350
'23:02.669',-0.265,0.300
'23:02.672',-0.255,0.265
'23:02.675',-0.220,0.205
'23:02.678',-0.200,0.150
'23:02.681',-0.170,0.100
'23:02.683',-0.145,0.035
'23:02.686',-0.120,0.000
'23:02.689',-0.110,-0.020
'23:02.692',-0.110,-0.050
'23:02.694',-0.105,-0.040
'23:02.697',-0.115,-0.025
'23:02.700',-0.130,-0.030
'23:02.703',-0.130,-0.030
'23:02.706',-0.135,-0.015
'23:02.708',-0.125,0.000
'23:02.711',-0.125,0.000
'23:02.714',-0.120,0.000
'23:02.717',-0.120,-0.015
'23:02.719',-0.130,-0.035
'23:02.722',-0.120,-0.060
'23:02.725',-0.125,-0.075
'23:02.728',-0.125,-0.065
'23:02.731',-0.135,-0.060
'23:02.733',-0.140,-0.040
'23:02.736',-0.145,-0.020
'23:02.739',-0.130,-0.010
'23:02.742',-0.125,-0.020
'23:02.744',-0.115,0.005
'23:02.747',-0.105,-0.005
'23:02.750',-0.085,-0.005
'23:02.753',-0.095,-0.030
'23:02.756',-0.085,-0.035
'23:02.758',-0.090,-0.040
'23:02.761',-0.095,-0.040
'23:02.764',-0.105,-0.050
'23:02.767',-0.100,-0.040
'23:02.769',-0.110,-0.035
'23:02.772',-0.120,-0.040
'23:02.775',-0.100,-0.040
'23:02.778',-0.090,-0.050
'23:02.781',-0.100,-0.040
'23:02.783',-0.075,-0.050
'23:02.786',-0.090,-0.060
'23:02.789',-0.075,-0.075
'23:02.792',-0.080,-0.080
'23:02.794',-0.090,-0.075
'23:02.797',-0.085,-0.080
'23:02.800',-0.085,-0.080
'23:02.803',-0.080,-0.075
'23:02.806',-0.070,-0.065
'23:02.808',-0.060,-0.055
'23:02.811',-0.050,-0.055
'23:02.814',-0.030,-0.065
'23:02.817',-0.010,-0.070
'23:02.819',-0.025,-0.085
'23:02.822',-0.010,-0.090
'23:02.825',-0.010,-0.090
'23:02.828',0.000,-0.090
'23:02.831',0.000,-0.110
'23:02.833',0.005,-0.125
'23:02.836',0.005,-0.170
'23:02.839',0.035,-0.170
'23:02.842',0.035,-0.170
'23:02.844',0.045,-0.165
'23:02.847',0.070,-0.160
'23:02.850',0.085,-0.170
'23:02.853',0.095,-0.165
'23:02.856',0.100,-0.175
'23:02.858',0.105,-0.190
'23:02.861',0.110,-0.200
'23:02.864',0.110,-0.205
'23:02.867',0.130,-0.200
'23:02.869',0.140,-0.195
'23:02.872',0.135,-0.190
'23:02.875',0.135,-0.195
'23:02.878',0.155,-0.185
'23:02.881',0.165,-0.190
'23:02.883',0.175,-0.210
'23:02.886',0.180,-0.210
'23:02.889',0.175,-0.205
'23:02.892',0.175,-0.195
'23:02.894',0.165,-0.210
'23:02.897',0.140,-0.200
'23:02.900',0.130,-0.190
'23:02.903',0.110,-0.170
'23:02.906',0.105,-0.140
'23:02.908',0.090,-0.125
'23:02.911',0.085,-0.095
'23:02.914',0.075,-0.085
'23:02.917',0.060,-0.085
'23:02.919',0.035,-0.070
'23:02.922',0.015,-0.055
'23:02.925',-0.010,-0.050
'23:02.928',-0.020,-0.050
'23:02.931',-0.045,-0.045
'23:02.933',-0.060,-0.015
'23:02.936',-0.065,-0.010
'23:02.939',-0.075,0.000
'23:02.942',-0.075,0.000
'23:02.944',-0.085,0.025
'23:02.947',-0.075,0.030
'23:02.950',-0.090,0.015
'23:02.953',-0.105,0.010
'23:02.956',-0.105,0.010
'23:02.958',-0.125,-0.015
'23:02.961',-0.120,-0.020
'23:02.964',-0.120,-0.050
'23:02.967',-0.130,-0.045
'23:02.969',-0.135,-0.045
'23:02.972',-0.150,-0.020
'23:02.975',-0.145,-0.015
'23:02.978',-0.145,-0.005
'23:02.981',-0.140,0.005
'23:02.983',-0.150,0.000
'23:02.986',-0.150,0.005
'23:02.989',-0.150,0.000
'23:02.992',-0.160,-0.015
'23:02.994',-0.165,-0.015
'23:02.997',-0.175,-0.030
'23:03.000',-0.165,-0.020
'23:03.003',-0.160,-0.005
'23:03.006',-0.165,-0.005
'23:03.008',-0.170,0.000
'23:03.011',-0.155,0.000
'23:03.014',-0.155,0.010
'23:03.017',-0.140,-0.010
'23:03.019',-0.140,0.005
'23:03.022',-0.135,-0.005
'23:03.025',-0.155,-0.010
'23:03.028',-0.165,-0.030
'23:03.031',-0.175,-0.020
'23:03.033',-0.180,-0.030
'23:03.036',-0.185,-0.010
'23:03.039',-0.200,-0.005
'23:03.042',-0.190,0.000
'23:03.044',-0.190,-0.030
'23:03.047',-0.190,-0.030
'23:03.050',-0.185,-0.040
'23:03.053',-0.190,-0.060
'23:03.056',-0.190,-0.080
'23:03.058',-0.185,-0.080
'23:03.061',-0.190,-0.085
'23:03.064',-0.190,-0.090
'23:03.067',-0.190,-0.095
'23:03.069',-0.200,-0.090
'23:03.072',-0.190,-0.065
'23:03.075',-0.185,-0.050
'23:03.078',-0.170,-0.045
'23:03.081',-0.145,-0.050
'23:03.083',-0.135,-0.050
'23:03.086',-0.120,-0.050
'23:03.089',-0.105,-0.065
'23:03.092',-0.115,-0.060
'23:03.094',-0.105,-0.055
'23:03.097',-0.130,-0.055
'23:03.100',-0.140,-0.065
'23:03.103',-0.135,-0.065
'23:03.106',-0.150,-0.060
'23:03.108',-0.150,-0.070
'23:03.111',-0.150,-0.060
'23:03.114',-0.145,-0.065
'23:03.117',-0.145,-0.075
'23:03.119',-0.145,-0.085
'23:03.122',-0.145,-0.080
'23:03.125',-0.155,-0.100
'23:03.128',-0.160,-0.095
'23:03.131',-0.165,-0.080
'23:03.133',-0.190,-0.080
'23:03.136',-0.185,-0.060
'23:03.139',-0.185,-0.045
'23:03.142',-0.175,-0.035
'23:03.144',-0.150,-0.035
'23:03.147',-0.125,-0.030
'23:03.150',-0.110,-0.035
'23:03.153',-0.105,-0.040
'23:03.156',-0.105,-0.040
'23:03.158',-0.140,-0.045
'23:03.161',-0.155,-0.050
'23:03.164',-0.180,-0.040
'23:03.167',-0.185,-0.020
'23:03.169',-0.190,-0.015
'23:03.172',-0.185,-0.005
'23:03.175',-0.175,0.000
'23:03.178',-0.160,0.005
'23:03.181',-0.160,-0.005
'23:03.183',-0.165,-0.005
'23:03.186',-0.165,-0.020
'23:03.189',-0.170,-0.030
'23:03.192',-0.165,-0.050
'23:03.194',-0.175,-0.065
'23:03.197',-0.175,-0.055
'23:03.200',-0.170,-0.055
'23:03.203',-0.165,-0.010
'23:03.206',-0.165,0.025
'23:03.208',-0.165,0.035
'23:03.211',-0.160,0.015
'23:03.214',-0.145,-0.005
'23:03.217',-0.160,-0.035
'23:03.219',-0.145,-0.055
'23:03.222',-0.160,-0.065
'23:03.225',-0.165,-0.055
'23:03.228',-0.175,-0.050
'23:03.231',-0.190,-0.040
'23:03.233',-0.205,-0.025
'23:03.236',-0.195,-0.020
'23:03.239',-0.180,-0.015
'23:03.242',-0.180,0.005
'23:03.244',-0.170,0.020
'23:03.247',-0.160,0.030
'23:03.250',-0.160,0.000
'23:03.253',-0.155,-0.010
'23:03.256',-0.155,-0.020
'23:03.258',-0.155,-0.045
'23:03.261',-0.150,-0.025
'23:03.264',-0.130,-0.030
'23:03.267',-0.120,-0.005
'23:03.269',-0.095,0.020
'23:03.272',-0.065,0.045
'23:03.275',-0.035,0.050
'23:03.278',0.005,0.050
'23:03.281',0.095,0.035
'23:03.283',0.205,-0.020
'23:03.286',0.320,-0.070
'23:03.289',0.460,-0.160
'23:03.292',0.550,-0.260
'23:03.294',0.600,-0.340
'23:03.297',0.555,-0.410
'23:03.300',0.395,-0.455
'23:03.303',0.140,-0.455
'23:03.306',-0.130,-0.395
'23:03.308',-0.355,-0.295
'23:03.311',-0.480,-0.160
'23:03.314',-0.520,-0.010
'23:03.317',-0.530,0.115
'23:03.319',-0.505,0.205
'23:03.322',-0.455,0.240
'23:03.325',-0.420,0.255
'23:03.328',-0.390,0.260
'23:03.331',-0.385,0.265
'23:03.333',-0.370,0.275
'23:03.336',-0.380,0.275
'23:03.339',-0.395,0.300
'23:03.342',-0.395,0.330
'23:03.344',-0.370,0.360
'23:03.347',-0.340,0.385
'23:03.350',-0.305,0.410
'23:03.353',-0.280,0.435
'23:03.356',-0.280,0.455
'23:03.358',-0.290,0.460
'23:03.361',-0.315,0.475
'23:03.364',-0.330,0.465
'23:03.367',-0.340,0.460
'23:03.369',-0.330,0.435
'23:03.372',-0.340,0.405
'23:03.375',-0.315,0.340
'23:03.378',-0.290,0.285
'23:03.381',-0.280,0.205
'23:03.383',-0.255,0.155
'23:03.386',-0.235,0.080
'23:03.389',-0.215,0.045
'23:03.392',-0.200,-0.005
'23:03.394',-0.185,-0.035
'23:03.397',-0.180,-0.065
'23:03.400',-0.170,-0.070
'23:03.403',-0.160,-0.070
'23:03.406',-0.155,-0.060
'23:03.408',-0.155,-0.060
'23:03.411',-0.155,-0.060
'23:03.414',-0.155,-0.050
'23:03.417',-0.150,-0.055
'23:03.419',-0.150,-0.070
'23:03.422',-0.150,-0.085
'23:03.425',-0.160,-0.080
'23:03.428',-0.160,-0.100
'23:03.431',-0.165,-0.100
'23:03.433',-0.170,-0.085
'23:03.436',-0.170,-0.085
'23:03.439',-0.170,-0.085
'23:03.442',-0.165,-0.070
'23:03.444',-0.165,-0.075
'23:03.447',-0.155,-0.060
'23:03.450',-0.145,-0.065
'23:03.453',-0.140,-0.060
'23:03.456',-0.150,-0.080
'23:03.458',-0.145,-0.095
'23:03.461',-0.150,-0.085
'23:03.464',-0.160,-0.095
'23:03.467',-0.165,-0.085
'23:03.469',-0.160,-0.075
'23:03.472',-0.160,-0.080
'23:03.475',-0.140,-0.055
'23:03.478',-0.130,-0.050
'23:03.481',-0.125,-0.045
'23:03.483',-0.110,-0.050
'23:03.486',-0.095,-0.065
'23:03.489',-0.110,-0.085
'23:03.492',-0.120,-0.085
'23:03.494',-0.135,-0.085
'23:03.497',-0.125,-0.095
'23:03.500',-0.130,-0.090
'23:03.503',-0.130,-0.105
'23:03.506',-0.130,-0.120
'23:03.508',-0.110,-0.135
'23:03.511',-0.110,-0.140
'23:03.514',-0.100,-0.125
'23:03.517',-0.090,-0.120
'23:03.519',-0.090,-0.105
'23:03.522',-0.090,-0.105
'23:03.525',-0.095,-0.120
'23:03.528',-0.105,-0.135
'23:03.531',-0.090,-0.155
'23:03.533',-0.085,-0.160
'23:03.536',-0.085,-0.180
'23:03.539',-0.080,-0.185
'23:03.542',-0.075,-0.165
'23:03.544',-0.080,-0.175
'23:03.547',-0.080,-0.170
'23:03.550',-0.095,-0.180
'23:03.553',-0.095,-0.180
'23:03.556',-0.085,-0.190
'23:03.558',-0.080,-0.225
'23:03.561',-0.050,-0.245
'23:03.564',-0.050,-0.255
'23:03.567',-0.030,-0.275
'23:03.569',-0.035,-0.280
'23:03.572',-0.025,-0.305
'23:03.575',-0.015,-0.325
'23:03.578',-0.005,-0.340
'23:03.581',0.005,-0.365
'23:03.583',0.055,-0.405
'23:03.586',0.135,-0.455
'23:03.589',0.210,-0.515
'23:03.592',0.270,-0.565
'23:03.594',0.330,-0.585
'23:03.597',0.355,-0.585
'23:03.600',0.365,-0.550
'23:03.603',0.390,-0.545
'23:03.606',0.400,-0.520
'23:03.608',0.405,-0.515
'23:03.611',0.390,-0.505
'23:03.614',0.380,-0.480
'23:03.617',0.380,-0.440
'23:03.619',0.355,-0.405
'23:03.622',0.355,-0.375
'23:03.625',0.340,-0.340
'23:03.628',0.330,-0.310
'23:03.631',0.295,-0.275
'23:03.633',0.265,-0.240
'23:03.636',0.245,-0.200
'23:03.639',0.230,-0.155
'23:03.642',0.220,-0.130
'23:03.644',0.210,-0.085
'23:03.647',0.195,-0.065
'23:03.650',0.205,-0.050
'23:03.653',0.180,-0.030
'23:03.656',0.170,-0.025
'23:03.658',0.150,-0.010
'23:03.661',0.135,-0.010
'23:03.664',0.120,-0.010
'23:03.667',0.090,0.010
'23:03.669',0.080,0.025
'23:03.672',0.080,0.045
'23:03.675',0.065,0.050
'23:03.678',0.060,0.065
'23:03.681',0.060,0.060
'23:03.683',0.055,0.020
'23:03.686',0.045,-0.005
'23:03.689',0.035,-0.020
'23:03.692',0.020,-0.020
'23:03.694',0.005,-0.015
'23:03.697',-0.005,0.010
'23:03.700',-0.035,0.030
'23:03.703',-0.050,0.025
'23:03.706',-0.060,0.020
'23:03.708',-0.065,0.030
'23:03.711',-0.065,0.025
'23:03.714',-0.065,0.040
'23:03.717',-0.055,0.055
'23:03.719',-0.065,0.065
'23:03.722',-0.060,0.060
'23:03.725',-0.070,0.055
'23:03.728',-0.085,0.025
'23:03.731',-0.095,0.010
'23:03.733',-0.100,-0.020
'23:03.736',-0.100,0.005
'23:03.739',-0.100,0.040
'23:03.742',-0.095,0.050
'23:03.744',-0.100,0.070
'23:03.747',-0.085,0.065
'23:03.750',-0.090,0.070
'23:03.753',-0.110,0.060
'23:03.756',-0.115,0.050
'23:03.758',-0.135,0.045
'23:03.761',-0.135,0.040
'23:03.764',-0.155,0.045
'23:03.767',-0.160,0.050
'23:03.769',-0.155,0.065
'23:03.772',-0.165,0.065
'23:03.775',-0.170,0.070
'23:03.778',-0.170,0.065
'23:03.781',-0.175,0.070
'23:03.783',-0.170,0.065
'23:03.786',-0.170,0.050
'23:03.789',-0.165,0.045
'23:03.792',-0.160,0.040
'23:03.794',-0.160,0.035
'23:03.797',-0.170,0.035
'23:03.800',-0.175,0.055
'23:03.803',-0.175,0.050
'23:03.806',-0.175,0.070
'23:03.808',-0.155,0.070
'23:03.811',-0.145,0.075
'23:03.814',-0.140,0.080
'23:03.817',-0.115,0.085
'23:03.819',-0.110,0.075
'23:03.822',-0.090,0.070
'23:03.825',-0.090,0.060
'23:03.828',-0.070,0.055
'23:03.831',-0.080,0.060
'23:03.833',-0.100,0.070
'23:03.836',-0.110,0.060
'23:03.839',-0.145,0.065
'23:03.842',-0.140,0.070
'23:03.844',-0.140,0.065
'23:03.847',-0.135,0.080
'23:03.850',-0.135,0.070
'23:03.853',-0.125,0.065
'23:03.856',-0.095,0.040
'23:03.858',-0.065,0.025
'23:03.861',-0.045,0.025
'23:03.864',-0.040,0.010
'23:03.867',-0.025,0.010
'23:03.869',-0.025,0.010
'23:03.872',-0.030,0.025
'23:03.875',-0.045,0.025
'23:03.878',-0.065,0.025
'23:03.881',-0.055,0.020
'23:03.883',-0.055,0.025
'23:03.886',-0.040,0.035
'23:03.889',-0.020,0.040
'23:03.892',0.000,0.035
'23:03.894',-0.005,0.050
'23:03.897',-0.015,0.045
'23:03.900',-0.040,0.035
'23:03.903',-0.035,0.035
'23:03.906',-0.040,0.060
'23:03.908',-0.045,0.075
'23:03.911',-0.050,0.095
'23:03.914',-0.045,0.105
'23:03.917',-0.050,0.100
'23:03.919',-0.050,0.060
'23:03.922',-0.055,0.025
'23:03.925',-0.070,0.000
'23:03.928',-0.075,-0.005
'23:03.931',-0.080,0.020
'23:03.933',-0.075,0.060
'23:03.936',-0.070,0.090
'23:03.939',-0.070,0.100
'23:03.942',-0.040,0.105
'23:03.944',-0.050,0.085
'23:03.947',-0.055,0.065
'23:03.950',-0.050,0.060
'23:03.953',-0.065,0.070
'23:03.956',-0.045,0.070
'23:03.958',-0.050,0.075
'23:03.961',-0.040,0.075
'23:03.964',-0.050,0.070
'23:03.967',-0.030,0.070
'23:03.969',-0.040,0.080
'23:03.972',-0.055,0.080
'23:03.975',-0.055,0.075
'23:03.978',-0.065,0.070
'23:03.981',-0.055,0.065
'23:03.983',-0.070,0.060
'23:03.986',-0.075,0.075
'23:03.989',-0.085,0.080
'23:03.992',-0.075,0.075
'23:03.994',-0.070,0.080
'23:03.997',-0.070,0.075
'23:04.000',-0.055,0.070
'23:04.003',-0.050,0.075
'23:04.006',-0.040,0.090
'23:04.008',-0.020,0.095
'23:04.011',0.010,0.125
'23:04.014',0.025,0.155
'23:04.017',0.070,0.180
'23:04.019',0.100,0.200
'23:04.022',0.160,0.190
'23:04.025',0.235,0.160
'23:04.028',0.315,0.090
'23:04.031',0.405,-0.005
'23:04.033',0.480,-0.110
'23:04.036',0.545,-0.205
'23:04.039',0.560,-0.295
'23:04.042',0.500,-0.365
'23:04.044',0.340,-0.400
'23:04.047',0.120,-0.420
'23:04.050',-0.090,-0.365
'23:04.053',-0.265,-0.285
'23:04.056',-0.360,-0.155
'23:04.058',-0.410,0.000
'23:04.061',-0.405,0.145
'23:04.064',-0.425,0.260
'23:04.067',-0.415,0.325
'23:04.069',-0.385,0.380
'23:04.072',-0.350,0.395
'23:04.075',-0.320,0.410
'23:04.078',-0.315,0.405
'23:04.081',-0.315,0.400
'23:04.083',-0.365,0.415
'23:04.086',-0.360,0.435
'23:04.089',-0.340,0.465
'23:04.092',-0.310,0.485
'23:04.094',-0.250,0.505
'23:04.097',-0.205,0.505
'23:04.100',-0.180,0.515
'23:04.103',-0.145,0.515
'23:04.106',-0.150,0.505
'23:04.108',-0.155,0.505
'23:04.111',-0.150,0.495
'23:04.114',-0.155,0.470
'23:04.117',-0.170,0.440
'23:04.119',-0.175,0.405
'23:04.122',-0.175,0.360
'23:04.125',-0.155,0.305
'23:04.128',-0.145,0.245
'23:04.131',-0.100,0.165
'23:04.133',-0.060,0.105
'23:04.136',-0.035,0.050
'23:04.139',-0.015,0.020
'23:04.142',-0.005,0.015
'23:04.144',0.010,0.020
'23:04.147',0.020,0.040
'23:04.150',0.010,0.045
'23:04.153',-0.005,0.055
'23:04.156',-0.015,0.060
'23:04.158',-0.060,0.070
'23:04.161',-0.055,0.070
'23:04.164',-0.045,0.075
'23:04.167',-0.040,0.060
'23:04.169',-0.045,0.060
'23:04.172',-0.055,0.065
'23:04.175',-0.040,0.040
'23:04.178',-0.050,0.030
'23:04.181',-0.045,0.025
'23:04.183',-0.040,0.005
'23:04.186',-0.055,0.000
'23:04.189',-0.050,0.005
'23:04.192',-0.050,0.005
'23:04.194',-0.060,0.000
'23:04.197',-0.055,-0.015
'23:04.200',-0.050,-0.010
'23:04.203',-0.055,-0.015
'23:04.206',-0.065,-0.025
'23:04.208',-0.060,-0.025
'23:04.211',-0.050,-0.005
'23:04.214',-0.055,-0.005
'23:04.217',-0.035,-0.005
'23:04.219',-0.045,-0.025
'23:04.222',-0.050,-0.030
'23:04.225',-0.050,-0.060
'23:04.228',-0.070,-0.065
'23:04.231',-0.075,-0.060
'23:04.233',-0.100,-0.060
'23:04.236',-0.100,-0.040
'23:04.239',-0.110,-0.035
'23:04.242',-0.120,-0.015
'23:04.244',-0.125,-0.015
'23:04.247',-0.130,-0.025
'23:04.250',-0.135,-0.035
'23:04.253',-0.165,-0.040
'23:04.256',-0.190,-0.040
'23:04.258',-0.210,-0.035
'23:04.261',-0.195,-0.030
'23:04.264',-0.180,-0.050
'23:04.267',-0.120,-0.050
'23:04.269',-0.080,-0.050
'23:04.272',-0.050,-0.065
'23:04.275',-0.015,-0.065
'23:04.278',0.020,-0.075
'23:04.281',0.045,-0.055
'23:04.283',0.060,-0.090
'23:04.286',0.070,-0.085
'23:04.289',0.090,-0.125
'23:04.292',0.095,-0.115
'23:04.294',0.110,-0.140
'23:04.297',0.115,-0.145
'23:04.300',0.120,-0.145
'23:04.303',0.125,-0.145
'23:04.306',0.145,-0.155
'23:04.308',0.140,-0.160
'23:04.311',0.150,-0.180
'23:04.314',0.160,-0.185
'23:04.317',0.165,-0.195
'23:04.319',0.165,-0.205
'23:04.322',0.165,-0.195
'23:04.325',0.165,-0.195
'23:04.328',0.165,-0.200
'23:04.331',0.175,-0.200
'23:04.333',0.170,-0.205
'23:04.336',0.165,-0.200
'23:04.339',0.165,-0.175
'23:04.342',0.185,-0.185
'23:04.344',0.195,-0.150
'23:04.347',0.195,-0.140
'23:04.350',0.185,-0.125
'23:04.353',0.170,-0.100
'23:04.356',0.150,-0.110
'23:04.358',0.125,-0.105
'23:04.361',0.095,-0.110
'23:04.364',0.075,-0.105
'23:04.367',0.045,-0.090
'23:04.369',0.020,-0.075
'23:04.372',0.000,-0.045
'23:04.375',0.005,-0.035
'23:04.378',0.000,0.000
'23:04.381',-0.005,0.020
'23:04.383',0.000,0.025
'23:04.386',-0.010,0.040
'23:04.389',-0.025,0.045
'23:04.392',-0.065,0.035
'23:04.394',-0.080,0.025
'23:04.397',-0.095,0.030
'23:04.400',-0.120,0.035
'23:04.403',-0.120,0.035
'23:04.406',-0.140,0.070
'23:04.408',-0.160,0.085
'23:04.411',-0.175,0.095
'23:04.414',-0.165,0.105
'23:04.417',-0.180,0.095
'23:04.419',-0.195,0.090
'23:04.422',-0.200,0.075
'23:04.425',-0.230,0.080
'23:04.428',-0.240,0.080
'23:04.431',-0.265,0.080
'23:04.433',-0.280,0.105
'23:04.436',-0.290,0.115
'23:04.439',-0.300,0.115
'23:04.442',-0.300,0.125
'23:04.444',-0.305,0.135
'23:04.447',-0.305,0.135
'23:04.450',-0.310,0.130
'23:04.453',-0.305,0.115
'23:04.456',-0.310,0.080
'23:04.458',-0.315,0.090
'23:04.461',-0.330,0.075
'23:04.464',-0.330,0.070
'23:04.467',-0.335,0.085
'23:04.469',-0.345,0.105
'23:04.472',-0.330,0.120
'23:04.475',-0.330,0.140
'23:04.478',-0.315,0.150
'23:04.481',-0.315,0.145
'23:04.483',-0.315,0.125
'23:04.486',-0.310,0.130
'23:04.489',-0.305,0.100
'23:04.492',-0.310,0.095
'23:04.494',-0.320,0.090
'23:04.497',-0.325,0.105
'23:04.500',-0.320,0.110
'23:04.503',-0.300,0.120
'23:04.506',-0.295,0.130
'23:04.508',-0.275,0.140
'23:04.511',-0.280,0.130
'23:04.514',-0.265,0.130
'23:04.517',-0.260,0.130
'23:04.519',-0.270,0.100
'23:04.522',-0.270,0.080
'23:04.525',-0.275,0.060
'23:04.528',-0.280,0.050
'23:04.531',-0.270,0.050
'23:04.533',-0.260,0.060
'23:04.536',-0.255,0.070
'23:04.539',-0.240,0.085
'23:04.542',-0.210,0.070
'23:04.544',-0.200,0.070
'23:04.547',-0.185,0.055
'23:04.550',-0.175,0.050
'23:04.553',-0.175,0.045
'23:04.556',-0.155,0.035
'23:04.558',-0.165,0.040
'23:04.561',-0.155,0.030
'23:04.564',-0.145,0.035
'23:04.567',-0.140,0.045
'23:04.569',-0.145,0.045
'23:04.572',-0.140,0.045
'23:04.575',-0.140,0.045
'23:04.578',-0.160,0.050
'23:04.581',-0.175,0.030
'23:04.583',-0.185,0.020
'23:04.586',-0.200,0.015
'23:04.589',-0.195,-0.010
'23:04.592',-0.215,-0.015
'23:04.594',-0.195,-0.030
'23:04.597',-0.195,-0.040
'23:04.600',-0.195,-0.035
'23:04.603',-0.215,-0.040
'23:04.606',-0.240,-0.040
'23:04.608',-0.255,-0.030
'23:04.611',-0.240,-0.030
'23:04.614',-0.210,-0.020
'23:04.617',-0.175,-0.020
'23:04.619',-0.145,-0.025
'23:04.622',-0.100,-0.020
'23:04.625',-0.090,0.010
'23:04.628',-0.080,-0.010
'23:04.631',-0.080,0.000
'23:04.633',-0.105,-0.005
'23:04.636',-0.120,-0.020
'23:04.639',-0.135,-0.020
'23:04.642',-0.130,-0.010
'23:04.644',-0.120,-0.015
'23:04.647',-0.100,-0.020
'23:04.650',-0.075,-0.020
'23:04.653',-0.080,-0.030
'23:04.656',-0.070,-0.030
'23:04.658',-0.075,-0.035
'23:04.661',-0.035,-0.050
'23:04.664',-0.045,-0.055
'23:04.667',-0.040,-0.045
'23:04.669',-0.045,-0.040
'23:04.672',-0.035,-0.020
'23:04.675',-0.045,-0.030
'23:04.678',-0.045,-0.015
'23:04.681',-0.030,-0.020
'23:04.683',-0.035,-0.025
'23:04.686',-0.040,-0.020
'23:04.689',-0.055,-0.020
'23:04.692',-0.050,-0.015
'23:04.694',-0.070,-0.015
'23:04.697',-0.070,-0.005
'23:04.700',-0.085,-0.005
'23:04.703',-0.075,-0.015
'23:04.706',-0.080,-0.005
'23:04.708',-0.085,0.005
'23:04.711',-0.090,0.010
'23:04.714',-0.100,0.035
'23:04.717',-0.105,0.030
'23:04.719',-0.100,0.035
'23:04.722',-0.100,0.035
'23:04.725',-0.090,0.010
'23:04.728',-0.095,0.020
'23:04.731',-0.110,0.020
'23:04.733',-0.125,0.015
'23:04.736',-0.130,0.025
'23:04.739',-0.125,0.035
'23:04.742',-0.145,0.045
'23:04.744',-0.120,0.070
'23:04.747',-0.110,0.075
'23:04.750',-0.080,0.080
'23:04.753',-0.045,0.085
'23:04.756',0.005,0.090
'23:04.758',0.075,0.090
'23:04.761',0.155,0.055
'23:04.764',0.265,0.000
'23:04.767',0.385,-0.070
'23:04.769',0.500,-0.130
'23:04.772',0.590,-0.185
'23:04.775',0.640,-0.250
'23:04.778',0.655,-0.285
'23:04.781',0.570,-0.330
'23:04.783',0.380,-0.345
'23:04.786',0.145,-0.335
'23:04.789',-0.075,-0.280
'23:04.792',-0.250,-0.200
'23:04.794',-0.345,-0.100
'23:04.797',-0.380,-0.005
'23:04.800',-0.390,0.090
'23:04.803',-0.375,0.165
'23:04.806',-0.355,0.205
'23:04.808',-0.335,0.250
'23:04.811',-0.315,0.285
'23:04.814',-0.290,0.290
'23:04.817',-0.275,0.285
'23:04.819',-0.295,0.280
'23:04.822',-0.305,0.290
'23:04.825',-0.320,0.285
'23:04.828',-0.330,0.310
'23:04.831',-0.335,0.325
'23:04.833',-0.310,0.350
'23:04.836',-0.265,0.365
'23:04.839',-0.240,0.390
'23:04.842',-0.210,0.430
'23:04.844',-0.205,0.450
'23:04.847',-0.205,0.460
'23:04.850',-0.215,0.475
'23:04.853',-0.245,0.480
'23:04.856',-0.260,0.470
'23:04.858',-0.265,0.440
'23:04.861',-0.265,0.410
'23:04.864',-0.260,0.375
'23:04.867',-0.250,0.320
'23:04.869',-0.250,0.265
'23:04.872',-0.230,0.215
'23:04.875',-0.210,0.165
'23:04.878',-0.165,0.100
'23:04.881',-0.140,0.070
'23:04.883',-0.110,0.030
'23:04.886',-0.110,0.015
'23:04.889',-0.095,0.010
'23:04.892',-0.105,0.000
'23:04.894',-0.110,0.000
'23:04.897',-0.125,-0.005
'23:04.900',-0.125,-0.005
'23:04.903',-0.120,-0.010
'23:04.906',-0.135,-0.010
'23:04.908',-0.130,-0.005
'23:04.911',-0.135,-0.020
'23:04.914',-0.125,-0.010
'23:04.917',-0.110,-0.010
'23:04.919',-0.120,-0.015
'23:04.922',-0.115,-0.010
'23:04.925',-0.125,-0.025
'23:04.928',-0.125,-0.050
'23:04.931',-0.135,-0.050
'23:04.933',-0.135,-0.040
'23:04.936',-0.140,-0.040
'23:04.939',-0.150,-0.035
'23:04.942',-0.140,-0.025
'23:04.944',-0.140,-0.010
'23:04.947',-0.125,-0.015
'23:04.950',-0.120,-0.015
'23:04.953',-0.125,-0.020
'23:04.956',-0.105,-0.020
'23:04.958',-0.105,-0.040
'23:04.961',-0.105,-0.045
'23:04.964',-0.100,-0.055
'23:04.967',-0.115,-0.045
'23:04.969',-0.120,-0.045
'23:04.972',-0.110,-0.045
'23:04.975',-0.100,-0.040
'23:04.978',-0.100,-0.040
'23:04.981',-0.095,-0.035
'23:04.983',-0.085,-0.040
'23:04.986',-0.075,-0.045
'23:04.989',-0.070,-0.050
'23:04.992',-0.070,-0.065
'23:04.994',-0.095,-0.080
'23:04.997',-0.105,-0.080
'23:05.000',-0.080,-0.100
'23:05.003',-0.085,-0.085
'23:05.006',-0.090,-0.085
'23:05.008',-0.065,-0.070
'23:05.011',-0.040,-0.075
'23:05.014',-0.040,-0.080
'23:05.017',-0.025,-0.090
'23:05.019',-0.015,-0.105
'23:05.022',-0.020,-0.105
'23:05.025',-0.025,-0.115
'23:05.028',-0.010,-0.130
'23:05.031',-0.005,-0.155
'23:05.033',0.005,-0.150
'23:05.036',0.020,-0.150
'23:05.039',0.035,-0.135
'23:05.042',0.040,-0.150
'23:05.044',0.060,-0.145
'23:05.047',0.070,-0.140
'23:05.050',0.080,-0.160
'23:05.053',0.080,-0.170
'23:05.056',0.080,-0.180
'23:05.058',0.085,-0.195
'23:05.061',0.085,-0.205
'23:05.064',0.075,-0.210
'23:05.067',0.095,-0.190
'23:05.069',0.095,-0.195
'23:05.072',0.105,-0.190
'23:05.075',0.130,-0.180
'23:05.078',0.140,-0.160
'23:05.081',0.135,-0.165
'23:05.083',0.155,-0.170
'23:05.086',0.150,-0.160
'23:05.089',0.150,-0.165
'23:05.092',0.115,-0.175
'23:05.094',0.110,-0.160
'23:05.097',0.095,-0.150
'23:05.100',0.080,-0.140
'23:05.103',0.075,-0.125
'23:05.106',0.065,-0.100
'23:05.108',0.060,-0.075
'23:05.111',0.055,-0.060
'23:05.114',0.045,-0.045
'23:05.117',0.045,-0.030
'23:05.119',0.030,-0.020
'23:05.122',0.010,-0.005
'23:05.125',-0.005,0.000
'23:05.128',-0.020,0.015
'23:05.131',-0.035,0.000
'23:05.133',-0.065,0.010
'23:05.136',-0.075,0.035
'23:05.139',-0.090,0.050
'23:05.142',-0.085,0.070
'23:05.144',-0.095,0.075
'23:05.147',-0.095,0.080
'23:05.150',-0.090,0.095
'23:05.153',-0.100,0.085
'23:05.156',-0.110,0.080
'23:05.158',-0.125,0.075
'23:05.161',-0.135,0.085
'23:05.164',-0.160,0.055
'23:05.167',-0.160,0.075
'23:05.169',-0.155,0.075
'23:05.172',-0.150,0.090
'23:05.175',-0.155,0.095
'23:05.178',-0.155,0.100
'23:05.181',-0.155,0.100
'23:05.183',-0.155,0.095
'23:05.186',-0.150,0.095
'23:05.189',-0.150,0.100
'23:05.192',-0.155,0.095
'23:05.194',-0.165,0.080
'23:05.197',-0.170,0.075
'23:05.200',-0.175,0.080
'23:05.203',-0.180,0.075
'23:05.206',-0.170,0.080
'23:05.208',-0.160,0.095
'23:05.211',-0.150,0.090
'23:05.214',-0.140,0.115
'23:05.217',-0.140,0.110
'23:05.219',-0.135,0.095
'23:05.222',-0.125,0.085
'23:05.225',-0.140,0.080
'23:05.228',-0.140,0.065
'23:05.231',-0.150,0.060
'23:05.233',-0.160,0.070
'23:05.236',-0.160,0.075
'23:05.239',-0.160,0.075
'23:05.242',-0.155,0.085
'23:05.244',-0.150,0.080
'23:05.247',-0.150,0.080
'23:05.250',-0.150,0.060
'23:05.253',-0.170,0.060
'23:05.256',-0.165,0.050
'23:05.258',-0.180,0.035
'23:05.261',-0.180,0.010
'23:05.264',-0.190,0.025
'23:05.267',-0.190,0.020
'23:05.269',-0.175,0.025
'23:05.272',-0.170,0.015
'23:05.275',-0.155,0.035
'23:05.278',-0.145,0.025
'23:05.281',-0.140,0.030
'23:05.283',-0.125,0.015
'23:05.286',-0.130,0.010
'23:05.289',-0.120,0.000
'23:05.292',-0.125,0.000
'23:05.294',-0.110,0.015
'23:05.297',-0.110,0.025
'23:05.300',-0.105,0.025
'23:05.303',-0.110,0.035
'23:05.306',-0.110,0.035
'23:05.308',-0.100,0.040
'23:05.311',-0.100,0.055
'23:05.314',-0.090,0.055
'23:05.317',-0.100,0.045
'23:05.319',-0.105,0.045
'23:05.322',-0.110,0.045
'23:05.325',-0.120,0.040
'23:05.328',-0.135,0.035
'23:05.331',-0.130,0.020
'23:05.333',-0.135,0.020
'23:05.336',-0.135,0.025
'23:05.339',-0.135,0.025
'23:05.342',-0.125,0.045
'23:05.344',-0.125,0.050
'23:05.347',-0.120,0.060
'23:05.350',-0.110,0.070
'23:05.353',-0.120,0.075
'23:05.356',-0.130,0.065
'23:05.358',-0.130,0.075
'23:05.361',-0.130,0.070
'23:05.364',-0.145,0.070
'23:05.367',-0.160,0.075
'23:05.369',-0.150,0.080
'23:05.372',-0.155,0.100
'23:05.375',-0.140,0.090
'23:05.378',-0.150,0.105
'23:05.381',-0.155,0.100
'23:05.383',-0.140,0.095
'23:05.386',-0.145,0.095
'23:05.389',-0.135,0.095
'23:05.392',-0.135,0.080
'23:05.394',-0.140,0.085
'23:05.397',-0.140,0.060
'23:05.400',-0.135,0.075
'23:05.403',-0.140,0.080
'23:05.406',-0.145,0.090
'23:05.408',-0.140,0.100
'23:05.411',-0.130,0.110
'23:05.414',-0.130,0.115
'23:05.417',-0.125,0.120
'23:05.419',-0.120,0.110
'23:05.422',-0.120,0.100
'23:05.425',-0.125,0.085
'23:05.428',-0.130,0.065
'23:05.431',-0.145,0.055
'23:05.433',-0.160,0.075
'23:05.436',-0.140,0.075
'23:05.439',-0.130,0.095
'23:05.442',-0.120,0.095
'23:05.444',-0.120,0.085
'23:05.447',-0.110,0.095
'23:05.450',-0.115,0.095
'23:05.453',-0.130,0.100
'23:05.456',-0.120,0.095
'23:05.458',-0.115,0.090
'23:05.461',-0.120,0.090
'23:05.464',-0.125,0.095
'23:05.467',-0.120,0.090
'23:05.469',-0.110,0.070
'23:05.472',-0.100,0.090
'23:05.475',-0.090,0.110
'23:05.478',-0.070,0.110
'23:05.481',-0.040,0.135
'23:05.483',-0.015,0.155
'23:05.486',0.015,0.155
'23:05.489',0.075,0.175
'23:05.492',0.145,0.160
'23:05.494',0.230,0.125
'23:05.497',0.315,0.065
'23:05.500',0.425,-0.010
'23:05.503',0.510,-0.070
'23:05.506',0.590,-0.160
'23:05.508',0.605,-0.235
'23:05.511',0.535,-0.285
'23:05.514',0.360,-0.315
'23:05.517',0.125,-0.310
'23:05.519',-0.120,-0.265
'23:05.522',-0.320,-0.200
'23:05.525',-0.440,-0.105
'23:05.528',-0.480,0.025
'23:05.531',-0.490,0.135
'23:05.533',-0.465,0.235
'23:05.536',-0.435,0.325
'23:05.539',-0.390,0.370
'23:05.542',-0.360,0.390
'23:05.544',-0.340,0.420
'23:05.547',-0.325,0.440
'23:05.550',-0.330,0.435
'23:05.553',-0.330,0.440
'23:05.556',-0.325,0.460
'23:05.558',-0.295,0.470
'23:05.561',-0.260,0.475
'23:05.564',-0.230,0.490
'23:05.567',-0.225,0.520
'23:05.569',-0.245,0.555
'23:05.572',-0.260,0.570
'23:05.575',-0.280,0.590
'23:05.578',-0.275,0.560
'23:05.581',-0.270,0.525
'23:05.583',-0.260,0.480
'23:05.586',-0.250,0.430
'23:05.589',-0.230,0.350
'23:05.592',-0.205,0.275
'23:05.594',-0.180,0.220
'23:05.597',-0.175,0.135
'23:05.600',-0.145,0.080
'23:05.603',-0.125,0.040
'23:05.606',-0.105,0.020
'23:05.608',-0.095,0.020
'23:05.611',-0.105,0.015
'23:05.614',-0.090,0.020
'23:05.617',-0.085,0.020
'23:05.619',-0.095,0.025
'23:05.622',-0.090,0.010
'23:05.625',-0.095,0.000
'23:05.628',-0.105,0.005
'23:05.631',-0.115,-0.025
'23:05.633',-0.120,-0.025
'23:05.636',-0.110,-0.035
'23:05.639',-0.110,-0.035
'23:05.642',-0.105,-0.020
'23:05.644',-0.105,-0.020
'23:05.647',-0.090,-0.015
'23:05.650',-0.095,-0.015
'23:05.653',-0.080,-0.020
'23:05.656',-0.075,-0.020
'23:05.658',-0.080,-0.040
'23:05.661',-0.085,-0.020
'23:05.664',-0.080,-0.030
'23:05.667',-0.085,-0.025
'23:05.669',-0.095,-0.025
'23:05.672',-0.095,-0.015
'23:05.675',-0.070,-0.005
'23:05.678',-0.065,0.005
'23:05.681',-0.065,-0.005
'23:05.683',-0.060,-0.005
'23:05.686',-0.070,-0.015
'23:05.689',-0.070,-0.020
'23:05.692',-0.070,-0.035
'23:05.694',-0.065,-0.035
'23:05.697',-0.065,-0.040
'23:05.700',-0.065,-0.025
'23:05.703',-0.060,-0.030
'23:05.706',-0.060,-0.025
'23:05.708',-0.050,-0.025
'23:05.711',-0.050,-0.025
'23:05.714',-0.040,-0.005
'23:05.717',-0.030,-0.020
'23:05.719',-0.025,-0.030
'23:05.722',-0.015,-0.040
'23:05.725',-0.010,-0.045
'23:05.728',0.000,-0.045
'23:05.731',-0.005,-0.055
'23:05.733',0.005,-0.055
'23:05.736',0.000,-0.060
'23:05.739',0.000,-0.055
'23:05.742',0.000,-0.050
'23:05.744',0.020,-0.065
'23:05.747',0.045,-0.055
'23:05.750',0.075,-0.070
'23:05.753',0.080,-0.075
'23:05.756',0.100,-0.105
'23:05.758',0.105,-0.115
'23:05.761',0.115,-0.125
'23:05.764',0.120,-0.120
'23:05.767',0.115,-0.145
'23:05.769',0.120,-0.145
'23:05.772',0.140,-0.135
'23:05.775',0.150,-0.120
'23:05.778',0.150,-0.120
'23:05.781',0.160,-0.110
'23:05.783',0.170,-0.135
'23:05.786',0.185,-0.140
'23:05.789',0.190,-0.160
'23:05.792',0.190,-0.165
'23:05.794',0.195,-0.170
'23:05.797',0.190,-0.170
'23:05.800',0.180,-0.155
'23:05.803',0.175,-0.160
'23:05.806',0.180,-0.150
'23:05.808',0.185,-0.140
'23:05.811',0.185,-0.140
'23:05.814',0.170,-0.120
'23:05.817',0.160,-0.125
'23:05.819',0.150,-0.110
'23:05.822',0.140,-0.095
'23:05.825',0.130,-0.090
'23:05.828',0.105,-0.070
'23:05.831',0.080,-0.060
'23:05.833',0.070,-0.055
'23:05.836',0.045,-0.050
'23:05.839',0.035,-0.020
'23:05.842',0.035,0.000
'23:05.844',0.030,0.020
'23:05.847',0.020,0.045
'23:05.850',0.005,0.040
'23:05.853',-0.010,0.040
'23:05.856',-0.015,0.035
'23:05.858',-0.030,0.045
'23:05.861',-0.035,0.030
'23:05.864',-0.040,0.045
'23:05.867',-0.045,0.040
'23:05.869',-0.045,0.045
'23:05.872',-0.075,0.055
'23:05.875',-0.055,0.085
'23:05.878',-0.060,0.110
'23:05.881',-0.050,0.110
'23:05.883',-0.065,0.100
'23:05.886',-0.070,0.090
'23:05.889',-0.080,0.085
'23:05.892',-0.080,0.100
'23:05.894',-0.095,0.080
'23:05.897',-0.110,0.080
'23:05.900',-0.110,0.080
'23:05.903',-0.110,0.080
'23:05.906',-0.110,0.095
'23:05.908',-0.105,0.095
'23:05.911',-0.105,0.100
'23:05.914',-0.100,0.105
'23:05.917',-0.090,0.115
'23:05.919',-0.095,0.115
'23:05.922',-0.090,0.110
'23:05.925',-0.090,0.100
'23:05.928',-0.095,0.085
'23:05.931',-0.105,0.085
'23:05.933',-0.105,0.080
'23:05.936',-0.120,0.100
'23:05.939',-0.115,0.100
'23:05.942',-0.110,0.100
'23:05.944',-0.110,0.110
'23:05.947',-0.100,0.105
'23:05.950',-0.105,0.105
'23:05.953',-0.090,0.100
'23:05.956',-0.105,0.095
'23:05.958',-0.120,0.105
'23:05.961',-0.125,0.105
'23:05.964',-0.120,0.090
'23:05.967',-0.125,0.095
'23:05.969',-0.135,0.100
'23:05.972',-0.135,0.100
'23:05.975',-0.130,0.105
'23:05.978',-0.110,0.125
'23:05.981',-0.105,0.125
'23:05.983',-0.095,0.125
'23:05.986',-0.080,0.115
'23:05.989',-0.080,0.115
'23:05.992',-0.085,0.105
'23:05.994',-0.090,0.095
'23:05.997',-0.095,0.095
'23:06.000',-0.095,0.090
'23:06.003',-0.100,0.105
'23:06.006',-0.100,0.095
'23:06.008',-0.100,0.095
'23:06.011',-0.085,0.095
'23:06.014',-0.085,0.105
'23:06.017',-0.070,0.090
'23:06.019',-0.075,0.090
'23:06.022',-0.075,0.085
'23:06.025',-0.085,0.085
'23:06.028',-0.095,0.070
'23:06.031',-0.095,0.055
'23:06.033',-0.100,0.070
'23:06.036',-0.105,0.080
'23:06.039',-0.105,0.090
'23:06.042',-0.105,0.080
'23:06.044',-0.115,0.090
'23:06.047',-0.115,0.095
'23:06.050',-0.120,0.100
'23:06.053',-0.125,0.100
'23:06.056',-0.120,0.085
'23:06.058',-0.100,0.080
'23:06.061',-0.100,0.080
'23:06.064',-0.110,0.070
'23:06.067',-0.115,0.070
'23:06.069',-0.120,0.065
'23:06.072',-0.120,0.065
'23:06.075',-0.115,0.080
'23:06.078',-0.100,0.095
'23:06.081',-0.095,0.095
'23:06.083',-0.085,0.090
'23:06.086',-0.085,0.085
'23:06.089',-0.090,0.075
'23:06.092',-0.100,0.075
'23:06.094',-0.095,0.075
'23:06.097',-0.110,0.075
'23:06.100',-0.110,0.070
'23:06.103',-0.110,0.060
'23:06.106',-0.110,0.070
'23:06.108',-0.115,0.095
'23:06.111',-0.110,0.100
'23:06.114',-0.110,0.100
'23:06.117',-0.090,0.100
'23:06.119',-0.105,0.095
'23:06.122',-0.105,0.080
'23:06.125',-0.115,0.075
'23:06.128',-0.105,0.075
'23:06.131',-0.100,0.070
'23:06.133',-0.095,0.070
'23:06.136',-0.100,0.085
'23:06.139',-0.105,0.085
'23:06.142',-0.090,0.100
'23:06.144',-0.085,0.095
'23:06.147',-0.075,0.095
'23:06.150',-0.070,0.095
'23:06.153',-0.075,0.085
'23:06.156',-0.065,0.090
'23:06.158',-0.085,0.095
'23:06.161',-0.090,0.100
'23:06.164',-0.105,0.090
'23:06.167',-0.110,0.080
'23:06.169',-0.105,0.095
'23:06.172',-0.100,0.095
'23:06.175',-0.095,0.115
'23:06.178',-0.090,0.130
'23:06.181',-0.085,0.130
'23:06.183',-0.080,0.120
'23:06.186',-0.090,0.115
'23:06.189',-0.085,0.120
'23:06.192',-0.095,0.110
'23:06.194',-0.085,0.115
'23:06.197',-0.085,0.120
'23:06.200',-0.090,0.105
'23:06.203',-0.095,0.115
'23:06.206',-0.090,0.105
'23:06.208',-0.085,0.120
'23:06.211',-0.085,0.130
'23:06.214',-0.080,0.135
'23:06.217',-0.075,0.135
'23:06.219',-0.085,0.140
'23:06.222',-0.085,0.145
'23:06.225',-0.085,0.140
'23:06.228',-0.090,0.125
'23:06.231',-0.105,0.130
'23:06.233',-0.115,0.125
'23:06.236',-0.105,0.115
'23:06.239',-0.105,0.125
'23:06.242',-0.105,0.140
'23:06.244',-0.095,0.140
'23:06.247',-0.090,0.145
'23:06.250',-0.090,0.140
'23:06.253',-0.090,0.140
'23:06.256',-0.090,0.135
'23:06.258',-0.095,0.120
'23:06.261',-0.100,0.110
'23:06.264',-0.100,0.105
'23:06.267',-0.100,0.100
'23:06.269',-0.100,0.105
'23:06.272',-0.105,0.115
'23:06.275',-0.110,0.125
'23:06.278',-0.090,0.135
'23:06.281',-0.095,0.150
'23:06.283',-0.090,0.140
'23:06.286',-0.100,0.130
'23:06.289',-0.090,0.135
'23:06.292',-0.095,0.140
'23:06.294',-0.095,0.120
'23:06.297',-0.115,0.130
'23:06.300',-0.120,0.130
'23:06.303',-0.125,0.125
'23:06.306',-0.125,0.125
'23:06.308',-0.120,0.120
'23:06.311',-0.120,0.130
'23:06.314',-0.120,0.125
'23:06.317',-0.105,0.135
'23:06.319',-0.105,0.135
'23:06.322',-0.115,0.130
'23:06.325',-0.115,0.125
'23:06.328',-0.120,0.110
'23:06.331',-0.120,0.115
'23:06.333',-0.115,0.120
'23:06.336',-0.125,0.120
'23:06.339',-0.130,0.135
'23:06.342',-0.125,0.145
'23:06.344',-0.120,0.150
'23:06.347',-0.095,0.135
'23:06.350',-0.095,0.120
'23:06.353',-0.105,0.125
'23:06.356',-0.120,0.125
'23:06.358',-0.110,0.115
'23:06.361',-0.120,0.105
'23:06.364',-0.125,0.110
'23:06.367',-0.130,0.115
'23:06.369',-0.130,0.115
'23:06.372',-0.145,0.120
'23:06.375',-0.145,0.125
'23:06.378',-0.125,0.135
'23:06.381',-0.115,0.135
'23:06.383',-0.110,0.120
'23:06.386',-0.110,0.130
'23:06.389',-0.115,0.125
'23:06.392',-0.125,0.120
'23:06.394',-0.125,0.115
'23:06.397',-0.130,0.105
'23:06.400',-0.125,0.115
'23:06.403',-0.125,0.115
'23:06.406',-0.130,0.120
'23:06.408',-0.125,0.125
'23:06.411',-0.130,0.130
'23:06.414',-0.120,0.140
'23:06.417',-0.120,0.140
'23:06.419',-0.120,0.130
'23:06.422',-0.120,0.115
'23:06.425',-0.115,0.115
'23:06.428',-0.125,0.105
'23:06.431',-0.135,0.110
'23:06.433',-0.140,0.100
'23:06.436',-0.145,0.105
'23:06.439',-0.150,0.105
'23:06.442',-0.140,0.110
'23:06.444',-0.125,0.130
'23:06.447',-0.110,0.140
'23:06.450',-0.105,0.130
'23:06.453',-0.115,0.120
'23:06.456',-0.105,0.125
'23:06.458',-0.125,0.120
'23:06.461',-0.135,0.115
'23:06.464',-0.130,0.105
'23:06.467',-0.135,0.105
'23:06.469',-0.125,0.110
'23:06.472',-0.115,0.110
'23:06.475',-0.105,0.120
'23:06.478',-0.105,0.125
'23:06.481',-0.095,0.140
'23:06.483',-0.095,0.125
'23:06.486',-0.100,0.125
'23:06.489',-0.110,0.120
'23:06.492',-0.115,0.105
'23:06.494',-0.120,0.115
'23:06.497',-0.130,0.110
'23:06.500',-0.130,0.105
'23:06.503',-0.130,0.110
'23:06.506',-0.125,0.120
'23:06.508',-0.125,0.125
'23:06.511',-0.115,0.135
'23:06.514',-0.120,0.130
'23:06.517',-0.105,0.135
'23:06.519',-0.115,0.115
'23:06.522',-0.115,0.110
'23:06.525',-0.125,0.110
'23:06.528',-0.125,0.120
'23:06.531',-0.130,0.120
'23:06.533',-0.130,0.115
'23:06.536',-0.140,0.120
'23:06.539',-0.140,0.120
'23:06.542',-0.115,0.125
'23:06.544',-0.105,0.125
'23:06.547',-0.120,0.120
'23:06.550',-0.100,0.130
'23:06.553',-0.100,0.115
'23:06.556',-0.100,0.115
'23:06.558',-0.105,0.100
'23:06.561',-0.110,0.095
'23:06.564',-0.120,0.095
'23:06.567',-0.125,0.095
'23:06.569',-0.130,0.095
'23:06.572',-0.135,0.110
'23:06.575',-0.115,0.125
'23:06.578',-0.125,0.145
'23:06.581',-0.100,0.125
'23:06.583',-0.100,0.130
'23:06.586',-0.120,0.115
'23:06.589',-0.110,0.110
'23:06.592',-0.115,0.090
'23:06.594',-0.115,0.095
'23:06.597',-0.130,0.095
'23:06.600',-0.130,0.105
'23:06.603',-0.120,0.105
'23:06.606',-0.120,0.110
'23:06.608',-0.120,0.115
'23:06.611',-0.130,0.120
'23:06.614',-0.095,0.115
'23:06.617',-0.095,0.115
'23:06.619',-0.095,0.115
'23:06.622',-0.115,0.115
'23:06.625',-0.110,0.105
'23:06.628',-0.120,0.090
'23:06.631',-0.110,0.100
'23:06.633',-0.110,0.100
'23:06.636',-0.110,0.105
'23:06.639',-0.100,0.100
'23:06.642',-0.110,0.120
'23:06.644',-0.105,0.120
'23:06.647',-0.110,0.125
'23:06.650',-0.120,0.135
'23:06.653',-0.120,0.130
'23:06.656',-0.120,0.130
'23:06.658',-0.125,0.120
'23:06.661',-0.140,0.100
'23:06.664',-0.115,0.105
'23:06.667',-0.120,0.120
'23:06.669',-0.130,0.105
'23:06.672',-0.140,0.115
'23:06.675',-0.135,0.115
'23:06.678',-0.125,0.125
'23:06.681',-0.110,0.130
'23:06.683',-0.105,0.125
'23:06.686',-0.105,0.125
'23:06.689',-0.105,0.125
'23:06.692',-0.120,0.115
'23:06.694',-0.120,0.105
'23:06.697',-0.125,0.105
'23:06.700',-0.125,0.100
'23:06.703',-0.120,0.110
'23:06.706',-0.115,0.120
'23:06.708',-0.105,0.125
'23:06.711',-0.105,0.135
'23:06.714',-0.110,0.140
'23:06.717',-0.105,0.140
'23:06.719',-0.105,0.120
'23:06.722',-0.110,0.115
'23:06.725',-0.110,0.105
'23:06.728',-0.115,0.100
'23:06.731',-0.120,0.085
'23:06.733',-0.125,0.080
'23:06.736',-0.135,0.100
'23:06.739',-0.130,0.105
'23:06.742',-0.120,0.120
'23:06.744',-0.110,0.130
'23:06.747',-0.110,0.120
'23:06.750',-0.095,0.125
'23:06.753',-0.110,0.120
'23:06.756',-0.095,0.110
'23:06.758',-0.115,0.110
'23:06.761',-0.115,0.110
'23:06.764',-0.125,0.105
'23:06.767',-0.125,0.110
'23:06.769',-0.130,0.115
'23:06.772',-0.125,0.120
'23:06.775',-0.120,0.115
'23:06.778',-0.110,0.135
'23:06.781',-0.100,0.145
'23:06.783',-0.095,0.135
'23:06.786',-0.095,0.140
'23:06.789',-0.105,0.120
'23:06.792',-0.115,0.110
'23:06.794',-0.125,0.090
'23:06.797',-0.140,0.095
'23:06.800',-0.135,0.100
'23:06.803',-0.130,0.095
'23:06.806',-0.130,0.100
'23:06.808',-0.130,0.105
'23:06.811',-0.125,0.135
'23:06.814',-0.120,0.130
'23:06.817',-0.095,0.135
'23:06.819',-0.095,0.135
'23:06.822',-0.090,0.120
'23:06.825',-0.105,0.110
'23:06.828',-0.110,0.110
'23:06.831',-0.120,0.105
'23:06.833',-0.130,0.115
'23:06.836',-0.130,0.125
'23:06.839',-0.135,0.130
'23:06.842',-0.125,0.140
'23:06.844',-0.115,0.135
'23:06.847',-0.100,0.140
'23:06.850',-0.095,0.135
'23:06.853',-0.110,0.110
'23:06.856',-0.115,0.125
'23:06.858',-0.125,0.120
'23:06.861',-0.130,0.120
'23:06.864',-0.135,0.120
'23:06.867',-0.135,0.115
'23:06.869',-0.145,0.100
'23:06.872',-0.145,0.120
'23:06.875',-0.130,0.125
'23:06.878',-0.115,0.120
'23:06.881',-0.110,0.135
'23:06.883',-0.100,0.140
'23:06.886',-0.095,0.130
'23:06.889',-0.095,0.105
'23:06.892',-0.090,0.105
'23:06.894',-0.100,0.115
'23:06.897',-0.120,0.100
'23:06.900',-0.120,0.100
'23:06.903',-0.125,0.115
'23:06.906',-0.120,0.120
'23:06.908',-0.120,0.125
'23:06.911',-0.110,0.120
'23:06.914',-0.100,0.135
'23:06.917',-0.100,0.130
'23:06.919',-0.095,0.135
'23:06.922',-0.105,0.125
'23:06.925',-0.125,0.125
'23:06.928',-0.115,0.105
'23:06.931',-0.130,0.110
'23:06.933',-0.130,0.115
'23:06.936',-0.130,0.110
'23:06.939',-0.125,0.105
'23:06.942',-0.110,0.115
'23:06.944',-0.120,0.130
'23:06.947',-0.105,0.135
'23:06.950',-0.115,0.125
'23:06.953',-0.110,0.125
'23:06.956',-0.110,0.110
'23:06.958',-0.115,0.100
'23:06.961',-0.110,0.105
'23:06.964',-0.125,0.100
'23:06.967',-0.130,0.100
'23:06.969',-0.125,0.095
'23:06.972',-0.125,0.115
'23:06.975',-0.130,0.120
'23:06.978',-0.125,0.125
'23:06.981',-0.120,0.135
'23:06.983',-0.115,0.130
'23:06.986',-0.125,0.130
'23:06.989',-0.120,0.110
'23:06.992',-0.130,0.115
'23:06.994',-0.140,0.105
'23:06.997',-0.160,0.110
'23:07.000',-0.145,0.095
'23:07.003',-0.135,0.090
'23:07.006',-0.130,0.100
'23:07.008',-0.125,0.110
'23:07.011',-0.120,0.115
'23:07.014',-0.110,0.120
'23:07.017',-0.105,0.115
'23:07.019',-0.120,0.110
'23:07.022',-0.105,0.095
'23:07.025',-0.110,0.095
'23:07.028',-0.115,0.085
'23:07.031',-0.120,0.085
'23:07.033',-0.115,0.085
'23:07.036',-0.120,0.095
'23:07.039',-0.135,0.095
'23:07.042',-0.115,0.110
'23:07.044',-0.115,0.110
'23:07.047',-0.120,0.120
'23:07.050',-0.125,0.120
'23:07.053',-0.105,0.125
'23:07.056',-0.110,0.120
'23:07.058',-0.120,0.095
'23:07.061',-0.130,0.090
'23:07.064',-0.125,0.070
'23:07.067',-0.130,0.080
'23:07.069',-0.125,0.085
'23:07.072',-0.110,0.085
'23:07.075',-0.105,0.100
'23:07.078',-0.110,0.100
'23:07.081',-0.100,0.105
'23:07.083',-0.100,0.115
'23:07.086',-0.115,0.110
'23:07.089',-0.110,0.100
'23:07.092',-0.115,0.090
'23:07.094',-0.110,0.090
'23:07.097',-0.120,0.085
'23:07.100',-0.130,0.080
'23:07.103',-0.125,0.100
'23:07.106',-0.120,0.110
'23:07.108',-0.120,0.110
'23:07.111',-0.125,0.115
'23:07.114',-0.115,0.120
'23:07.117',-0.105,0.115
'23:07.119',-0.115,0.120
'23:07.122',-0.105,0.110
'23:07.125',-0.120,0.110
'23:07.128',-0.120,0.105
'23:07.131',-0.125,0.100
'23:07.133',-0.125,0.100
'23:07.136',-0.120,0.100
'23:07.139',-0.115,0.100
'23:07.142',-0.110,0.105
'23:07.144',-0.110,0.115
'23:07.147',-0.110,0.105
'23:07.150',-0.095,0.110
'23:07.153',-0.100,0.120
'23:07.156',-0.105,0.110
'23:07.158',-0.115,0.110
'23:07.161',-0.120,0.105
'23:07.164',-0.120,0.100
'23:07.167',-0.130,0.090
'23:07.169',-0.135,0.095
'23:07.172',-0.120,0.110
'23:07.175',-0.115,0.110
'23:07.178',-0.125,0.105
'23:07.181',-0.110,0.115
'23:07.183',-0.115,0.120
'23:07.186',-0.110,0.125
'23:07.189',-0.115,0.125
'23:07.192',-0.110,0.115
'23:07.194',-0.115,0.110
'23:07.197',-0.105,0.110
'23:07.200',-0.095,0.100
'23:07.203',-0.095,0.115
'23:07.206',-0.070,0.115
'23:07.208',-0.055,0.120
'23:07.211',-0.050,0.130
'23:07.214',-0.045,0.135
'23:07.217',-0.030,0.135
'23:07.219',-0.035,0.130
'23:07.222',-0.035,0.120
'23:07.225',-0.040,0.125
'23:07.228',-0.040,0.105
'23:07.231',-0.050,0.100
'23:07.233',-0.050,0.080
'23:07.236',-0.040,0.085
'23:07.239',-0.040,0.080
'23:07.242',-0.040,0.075
'23:07.244',-0.040,0.080
'23:07.247',-0.040,0.090
'23:07.250',-0.040,0.075
'23:07.253',-0.055,0.075
'23:07.256',-0.065,0.065
'23:07.258',-0.050,0.075
'23:07.261',-0.070,0.060
'23:07.264',-0.085,0.075
'23:07.267',-0.095,0.075
'23:07.269',-0.095,0.070
'23:07.272',-0.100,0.075
'23:07.275',-0.085,0.085
'23:07.278',-0.085,0.085
'23:07.281',-0.080,0.080
'23:07.283',-0.060,0.080
'23:07.286',-0.065,0.075
'23:07.289',-0.065,0.090
'23:07.292',-0.075,0.085
'23:07.294',-0.090,0.085
'23:07.297',-0.120,0.085
'23:07.300',-0.135,0.090
'23:07.303',-0.145,0.085
'23:07.306',-0.155,0.105
'23:07.308',-0.160,0.110
'23:07.311',-0.150,0.125
'23:07.314',-0.135,0.125
'23:07.317',-0.130,0.130
'23:07.319',-0.135,0.100
'23:07.322',-0.135,0.100
'23:07.325',-0.140,0.110
'23:07.328',-0.135,0.090
'23:07.331',-0.150,0.100
'23:07.333',-0.150,0.100
'23:07.336',-0.165,0.095
'23:07.339',-0.150,0.115
'23:07.342',-0.150,0.120
'23:07.344',-0.145,0.130
'23:07.347',-0.150,0.120
'23:07.350',-0.140,0.110
'23:07.353',-0.160,0.115
'23:07.356',-0.170,0.110
'23:07.358',-0.155,0.095
'23:07.361',-0.160,0.090
'23:07.364',-0.160,0.090
'23:07.367',-0.165,0.090
'23:07.369',-0.160,0.090
'23:07.372',-0.160,0.110
'23:07.375',-0.155,0.105
'23:07.378',-0.140,0.110
'23:07.381',-0.135,0.115
'23:07.383',-0.135,0.110
'23:07.386',-0.125,0.110
'23:07.389',-0.120,0.100
'23:07.392',-0.120,0.105
'23:07.394',-0.110,0.100
'23:07.397',-0.105,0.115
'23:07.400',-0.100,0.135
'23:07.403',-0.070,0.150
'23:07.406',-0.040,0.155
'23:07.408',-0.005,0.160
'23:07.411',0.050,0.150
'23:07.414',0.120,0.130
'23:07.417',0.205,0.090
'23:07.419',0.285,0.015
'23:07.422',0.380,-0.055
'23:07.425',0.480,-0.160
'23:07.428',0.535,-0.250
'23:07.431',0.515,-0.335
'23:07.433',0.420,-0.390
'23:07.436',0.220,-0.410
'23:07.439',-0.020,-0.380
'23:07.442',-0.220,-0.310
'23:07.444',-0.365,-0.205
'23:07.447',-0.420,-0.065
'23:07.450',-0.430,0.060
'23:07.453',-0.425,0.190
'23:07.456',-0.410,0.290
'23:07.458',-0.400,0.345
'23:07.461',-0.375,0.375
'23:07.464',-0.375,0.390
'23:07.467',-0.375,0.400
'23:07.469',-0.360,0.420
'23:07.472',-0.375,0.445
'23:07.475',-0.385,0.480
'23:07.478',-0.360,0.520
'23:07.481',-0.345,0.555
'23:07.483',-0.305,0.580
'23:07.486',-0.275,0.605
'23:07.489',-0.270,0.615
'23:07.492',-0.265,0.635
'23:07.494',-0.260,0.645
'23:07.497',-0.280,0.640
'23:07.500',-0.300,0.660
'23:07.503',-0.310,0.655
'23:07.506',-0.315,0.650
'23:07.508',-0.305,0.625
'23:07.511',-0.285,0.585
'23:07.514',-0.265,0.530
'23:07.517',-0.235,0.455
'23:07.519',-0.220,0.375
'23:07.522',-0.210,0.305
'23:07.525',-0.195,0.240
'23:07.528',-0.175,0.190
'23:07.531',-0.170,0.140
'23:07.533',-0.160,0.105
'23:07.536',-0.155,0.085
'23:07.539',-0.150,0.055
'23:07.542',-0.135,0.070
'23:07.544',-0.125,0.070
'23:07.547',-0.130,0.080
'23:07.550',-0.120,0.080
'23:07.553',-0.125,0.065
'23:07.556',-0.135,0.070
'23:07.558',-0.155,0.055
'23:07.561',-0.145,0.060
'23:07.564',-0.145,0.050
'23:07.567',-0.160,0.035
'23:07.569',-0.155,0.045
'23:07.572',-0.160,0.050
'23:07.575',-0.160,0.050
'23:07.578',-0.160,0.060
'23:07.581',-0.145,0.065
'23:07.583',-0.145,0.050
'23:07.586',-0.125,0.060
'23:07.589',-0.115,0.050
'23:07.592',-0.115,0.050
'23:07.594',-0.125,0.045
'23:07.597',-0.130,0.045
'23:07.600',-0.135,0.050
'23:07.603',-0.140,0.040
'23:07.606',-0.130,0.055
'23:07.608',-0.125,0.045
'23:07.611',-0.115,0.055
'23:07.614',-0.120,0.070
'23:07.617',-0.110,0.075
'23:07.619',-0.105,0.060
'23:07.622',-0.095,0.055
'23:07.625',-0.110,0.035
'23:07.628',-0.125,0.030
'23:07.631',-0.120,0.025
'23:07.633',-0.110,0.025
'23:07.636',-0.120,0.020
'23:07.639',-0.125,0.030
'23:07.642',-0.115,0.025
'23:07.644',-0.110,0.035
'23:07.647',-0.095,0.030
'23:07.650',-0.075,0.030
'23:07.653',-0.070,0.025
'23:07.656',-0.060,0.015
'23:07.658',-0.060,0.015
'23:07.661',-0.055,0.010
'23:07.664',-0.060,-0.005
'23:07.667',-0.050,0.005
'23:07.669',-0.050,-0.005
'23:07.672',-0.030,0.000
'23:07.675',-0.030,0.000
'23:07.678',-0.030,0.010
'23:07.681',-0.020,0.000
'23:07.683',-0.005,0.000
'23:07.686',0.020,-0.015
'23:07.689',0.015,-0.030
'23:07.692',0.035,-0.040
'23:07.694',0.015,-0.040
'23:07.697',0.010,-0.075
'23:07.700',0.010,-0.065
'23:07.703',0.025,-0.075
'23:07.706',0.030,-0.080
'23:07.708',0.050,-0.070
'23:07.711',0.060,-0.075
'23:07.714',0.070,-0.075
'23:07.717',0.080,-0.080
'23:07.719',0.085,-0.085
'23:07.722',0.095,-0.085
'23:07.725',0.095,-0.100
'23:07.728',0.095,-0.110
'23:07.731',0.100,-0.115
'23:07.733',0.100,-0.135
'23:07.736',0.105,-0.130
'23:07.739',0.115,-0.115
'23:07.742',0.115,-0.105
'23:07.744',0.120,-0.110
'23:07.747',0.120,-0.100
'23:07.750',0.130,-0.090
'23:07.753',0.130,-0.095
'23:07.756',0.125,-0.095
'23:07.758',0.120,-0.095
'23:07.761',0.115,-0.090
'23:07.764',0.110,-0.090
'23:07.767',0.090,-0.080
'23:07.769',0.085,-0.060
'23:07.772',0.065,-0.035
'23:07.775',0.065,-0.015
'23:07.778',0.055,0.000
'23:07.781',0.065,0.000
'23:07.783',0.055,0.025
'23:07.786',0.045,0.045
'23:07.789',0.050,0.050
'23:07.792',0.030,0.040
'23:07.794',0.005,0.050
'23:07.797',0.000,0.065
'23:07.800',-0.025,0.070
'23:07.803',-0.030,0.065
'23:07.806',-0.030,0.085
'23:07.808',-0.040,0.080
'23:07.811',-0.045,0.090
'23:07.814',-0.050,0.100
'23:07.817',-0.045,0.095
'23:07.819',-0.065,0.100
'23:07.822',-0.070,0.110
'23:07.825',-0.075,0.110
'23:07.828',-0.080,0.105
'23:07.831',-0.085,0.095
'23:07.833',-0.095,0.090
'23:07.836',-0.090,0.090
'23:07.839',-0.095,0.100
'23:07.842',-0.095,0.105
'23:07.844',-0.095,0.110
'23:07.847',-0.090,0.105
'23:07.850',-0.075,0.100
'23:07.853',-0.085,0.105
'23:07.856',-0.090,0.100
'23:07.858',-0.095,0.100
'23:07.861',-0.090,0.085
'23:07.864',-0.090,0.085
'23:07.867',-0.095,0.080
'23:07.869',-0.095,0.100
'23:07.872',-0.095,0.110
'23:07.875',-0.095,0.110
'23:07.878',-0.090,0.120
'23:07.881',-0.065,0.115
'23:07.883',-0.060,0.120
'23:07.886',-0.060,0.115
'23:07.889',-0.070,0.125
'23:07.892',-0.080,0.120
'23:07.894',-0.080,0.120
'23:07.897',-0.090,0.120
'23:07.900',-0.100,0.115
'23:07.903',-0.095,0.105
'23:07.906',-0.095,0.120
'23:07.908',-0.100,0.120
'23:07.911',-0.095,0.130
'23:07.914',-0.075,0.140
'23:07.917',-0.085,0.135
'23:07.919',-0.075,0.135
'23:07.922',-0.065,0.140
'23:07.925',-0.085,0.130
'23:07.928',-0.085,0.125
'23:07.931',-0.080,0.125
'23:07.933',-0.095,0.115
'23:07.936',-0.080,0.115
'23:07.939',-0.090,0.135
'23:07.942',-0.085,0.135
'23:07.944',-0.085,0.130
'23:07.947',-0.080,0.140
'23:07.950',-0.080,0.135
'23:07.953',-0.080,0.135
'23:07.956',-0.090,0.130
'23:07.958',-0.110,0.120
'23:07.961',-0.115,0.110
'23:07.964',-0.130,0.105
'23:07.967',-0.135,0.095
'23:07.969',-0.155,0.105
'23:07.972',-0.155,0.110
'23:07.975',-0.155,0.120
'23:07.978',-0.140,0.125
'23:07.981',-0.115,0.125
'23:07.983',-0.110,0.125
'23:07.986',-0.100,0.130
'23:07.989',-0.100,0.130
'23:07.992',-0.105,0.115
'23:07.994',-0.095,0.095
'23:07.997',-0.095,0.090
'23:08.000',-0.085,0.095
'23:08.003',-0.065,0.090
'23:08.006',-0.055,0.095
'23:08.008',-0.055,0.100
'23:08.011',-0.045,0.100
'23:08.014',-0.045,0.115
'23:08.017',-0.030,0.095
'23:08.019',-0.025,0.085
'23:08.022',-0.020,0.090
'23:08.025',-0.015,0.090
'23:08.028',-0.010,0.080
'23:08.031',-0.005,0.080
'23:08.033',-0.025,0.085
'23:08.036',-0.020,0.090
'23:08.039',-0.030,0.090
'23:08.042',-0.030,0.095
'23:08.044',-0.015,0.100
'23:08.047',-0.015,0.100
'23:08.050',-0.010,0.105
'23:08.053',-0.005,0.095
'23:08.056',0.005,0.080
'23:08.058',0.000,0.070
'23:08.061',-0.005,0.075
'23:08.064',-0.020,0.070
'23:08.067',-0.035,0.070
'23:08.069',-0.030,0.070
'23:08.072',-0.030,0.055
'23:08.075',-0.030,0.070
'23:08.078',-0.010,0.085
'23:08.081',0.005,0.095
'23:08.083',0.020,0.105
'23:08.086',0.015,0.100
'23:08.089',-0.005,0.105
'23:08.092',-0.005,0.100
'23:08.094',-0.010,0.080
'23:08.097',-0.030,0.080
'23:08.100',-0.025,0.070
'23:08.103',-0.030,0.085
'23:08.106',-0.025,0.110
'23:08.108',-0.030,0.100
'23:08.111',-0.015,0.105
'23:08.114',0.000,0.105
'23:08.117',0.010,0.110
'23:08.119',0.000,0.110
'23:08.122',0.010,0.110
'23:08.125',0.015,0.120
'23:08.128',0.015,0.110
'23:08.131',0.005,0.115
'23:08.133',0.005,0.120
'23:08.136',0.005,0.125
'23:08.139',0.000,0.115
'23:08.142',0.000,0.130
'23:08.144',0.000,0.120
'23:08.147',0.005,0.130
'23:08.150',0.010,0.135
'23:08.153',0.010,0.135
'23:08.156',0.000,0.125
'23:08.158',-0.005,0.115
'23:08.161',-0.005,0.105
'23:08.164',-0.025,0.105
'23:08.167',-0.030,0.115
'23:08.169',-0.030,0.125
'23:08.172',-0.030,0.130
'23:08.175',-0.035,0.130
'23:08.178',-0.045,0.135
'23:08.181',-0.040,0.125
'23:08.183',-0.035,0.125
'23:08.186',-0.040,0.125
'23:08.189',-0.040,0.125
'23:08.192',-0.040,0.125
'23:08.194',-0.040,0.115
'23:08.197',-0.035,0.120
'23:08.200',-0.050,0.110
'23:08.203',-0.065,0.120
'23:08.206',-0.060,0.120
'23:08.208',-0.060,0.125
'23:08.211',-0.050,0.130
'23:08.214',-0.025,0.150
'23:08.217',-0.020,0.130
'23:08.219',-0.025,0.135
'23:08.222',-0.015,0.130
'23:08.225',-0.020,0.130
'23:08.228',-0.020,0.115
'23:08.231',-0.025,0.115
'23:08.233',-0.035,0.120
'23:08.236',-0.030,0.120
'23:08.239',-0.030,0.145
'23:08.242',-0.035,0.135
'23:08.244',-0.035,0.140
'23:08.247',-0.050,0.140
'23:08.250',-0.030,0.140
'23:08.253',-0.015,0.135
'23:08.256',-0.015,0.120
'23:08.258',-0.020,0.100
'23:08.261',-0.010,0.095
'23:08.264',-0.015,0.085
'23:08.267',-0.020,0.105
'23:08.269',-0.020,0.110
'23:08.272',-0.015,0.105
'23:08.275',-0.010,0.115
'23:08.278',-0.015,0.115
'23:08.281',-0.010,0.125
'23:08.283',0.005,0.110
'23:08.286',-0.005,0.100
'23:08.289',-0.015,0.090
'23:08.292',-0.025,0.080
'23:08.294',-0.025,0.085
'23:08.297',-0.045,0.060
'23:08.300',-0.050,0.080
'23:08.303',-0.045,0.090
'23:08.306',-0.055,0.095
'23:08.308',-0.040,0.100
'23:08.311',-0.040,0.110
'23:08.314',-0.025,0.110
'23:08.317',-0.010,0.110
'23:08.319',0.000,0.115
'23:08.322',-0.005,0.105
'23:08.325',-0.005,0.100
'23:08.328',-0.010,0.090
'23:08.331',-0.010,0.095
'23:08.333',-0.015,0.095
'23:08.336',-0.025,0.090
'23:08.339',-0.020,0.110
'23:08.342',-0.015,0.115
'23:08.344',-0.010,0.120
'23:08.347',-0.015,0.125
'23:08.350',0.000,0.125
'23:08.353',-0.015,0.125
'23:08.356',-0.015,0.120
'23:08.358',-0.035,0.115
'23:08.361',-0.025,0.110
'23:08.364',-0.035,0.105
'23:08.367',-0.040,0.105
'23:08.369',-0.045,0.110
'23:08.372',-0.040,0.115
'23:08.375',-0.035,0.140
'23:08.378',-0.040,0.135
'23:08.381',-0.030,0.145
'23:08.383',-0.035,0.140
'23:08.386',-0.035,0.120
'23:08.389',-0.030,0.135
'23:08.392',-0.035,0.130
'23:08.394',-0.050,0.115
'23:08.397',-0.045,0.120
'23:08.400',-0.050,0.120
'23:08.403',-0.040,0.120
'23:08.406',-0.050,0.115
'23:08.408',-0.045,0.120
'23:08.411',-0.045,0.125
'23:08.414',-0.045,0.140
'23:08.417',-0.045,0.135
'23:08.419',-0.055,0.145
'23:08.422',-0.060,0.150
'23:08.425',-0.085,0.135
'23:08.428',-0.060,0.130
'23:08.431',-0.070,0.115
'23:08.433',-0.090,0.120
'23:08.436',-0.085,0.110
'23:08.439',-0.085,0.130
'23:08.442',-0.095,0.135
'23:08.444',-0.100,0.150
'23:08.447',-0.085,0.175
'23:08.450',-0.060,0.175
'23:08.453',-0.050,0.160
'23:08.456',-0.035,0.165
'23:08.458',-0.050,0.150
'23:08.461',-0.040,0.135
'23:08.464',-0.040,0.115
'23:08.467',-0.035,0.105
'23:08.469',-0.045,0.115
'23:08.472',-0.040,0.115
'23:08.475',-0.020,0.120
'23:08.478',-0.020,0.125
'23:08.481',-0.015,0.125
'23:08.483',-0.005,0.135
'23:08.486',-0.015,0.135
'23:08.489',-0.020,0.125
'23:08.492',-0.015,0.135
'23:08.494',-0.025,0.120
'23:08.497',-0.025,0.105
'23:08.500',-0.045,0.095
'23:08.503',-0.040,0.100
'23:08.506',-0.050,0.120
'23:08.508',-0.050,0.120
'23:08.511',-0.045,0.120
'23:08.514',-0.050,0.125
'23:08.517',-0.035,0.125
'23:08.519',-0.035,0.135
'23:08.522',-0.020,0.130
'23:08.525',-0.010,0.110
'23:08.528',-0.010,0.125
'23:08.531',-0.020,0.115
'23:08.533',-0.025,0.120
'23:08.536',-0.030,0.125
'23:08.539',-0.035,0.125
'23:08.542',-0.045,0.135
'23:08.544',-0.035,0.155
'23:08.547',-0.040,0.145
'23:08.550',-0.040,0.150
'23:08.553',-0.030,0.140
'23:08.556',0.000,0.130
'23:08.558',-0.015,0.130
'23:08.561',-0.020,0.125
'23:08.564',-0.030,0.115
'23:08.567',-0.045,0.115
'23:08.569',-0.040,0.120
'23:08.572',-0.045,0.135
'23:08.575',-0.035,0.135
'23:08.578',-0.035,0.155
'23:08.581',-0.035,0.150
'23:08.583',-0.040,0.145
'23:08.586',-0.040,0.145
'23:08.589',-0.030,0.135
'23:08.592',-0.035,0.130
'23:08.594',-0.045,0.120
'23:08.597',-0.045,0.110
'23:08.600',-0.040,0.125
'23:08.603',-0.030,0.120
'23:08.606',-0.035,0.125
'23:08.608',-0.030,0.135
'23:08.611',-0.020,0.150
'23:08.614',-0.010,0.145
'23:08.617',-0.015,0.150
'23:08.619',-0.020,0.140
'23:08.622',-0.030,0.135
'23:08.625',-0.050,0.130
'23:08.628',-0.040,0.135
'23:08.631',-0.050,0.125
'23:08.633',-0.060,0.125
'23:08.636',-0.055,0.125
'23:08.639',-0.060,0.115
'23:08.642',-0.055,0.120
'23:08.644',-0.050,0.135
'23:08.647',-0.025,0.155
'23:08.650',-0.025,0.150
'23:08.653',-0.025,0.150
'23:08.656',-0.035,0.145
'23:08.658',-0.040,0.130
'23:08.661',-0.035,0.130
'23:08.664',-0.045,0.125
'23:08.667',-0.040,0.120
'23:08.669',-0.050,0.135
'23:08.672',-0.055,0.130
'23:08.675',-0.050,0.125
'23:08.678',-0.040,0.145
'23:08.681',-0.025,0.150
'23:08.683',-0.015,0.135
'23:08.686',-0.020,0.145
'23:08.689',-0.005,0.130
'23:08.692',-0.025,0.130
'23:08.694',-0.025,0.105
'23:08.697',-0.050,0.100
'23:08.700',-0.060,0.110
'23:08.703',-0.045,0.110
'23:08.706',-0.040,0.135
'23:08.708',-0.025,0.135
'23:08.711',-0.005,0.145
'23:08.714',-0.005,0.145
'23:08.717',-0.005,0.140
'23:08.719',-0.005,0.115
'23:08.722',-0.015,0.115
'23:08.725',-0.025,0.110
'23:08.728',-0.040,0.100
'23:08.731',-0.040,0.100
'23:08.733',-0.050,0.100
'23:08.736',-0.040,0.105
'23:08.739',-0.035,0.115
'23:08.742',-0.025,0.125
'23:08.744',-0.020,0.125
'23:08.747',-0.010,0.120
'23:08.750',-0.005,0.125
'23:08.753',-0.010,0.115
'23:08.756',-0.005,0.110
'23:08.758',-0.020,0.110
'23:08.761',-0.025,0.095
'23:08.764',-0.035,0.100
'23:08.767',-0.050,0.095
'23:08.769',-0.055,0.100
'23:08.772',-0.050,0.105
'23:08.775',-0.040,0.100
'23:08.778',-0.045,0.110
'23:08.781',-0.020,0.120
'23:08.783',-0.010,0.125
'23:08.786',-0.020,0.125
'23:08.789',-0.020,0.110
'23:08.792',-0.015,0.120
'23:08.794',-0.020,0.100
'23:08.797',-0.030,0.105
'23:08.800',-0.040,0.100
'23:08.803',-0.040,0.100
'23:08.806',-0.040,0.110
'23:08.808',-0.045,0.120
'23:08.811',-0.040,0.130
'23:08.814',-0.045,0.145
'23:08.817',-0.045,0.150
'23:08.819',-0.055,0.135
'23:08.822',-0.045,0.130
'23:08.825',-0.060,0.125
'23:08.828',-0.065,0.125
'23:08.831',-0.075,0.120
'23:08.833',-0.080,0.120
'23:08.836',-0.080,0.135
'23:08.839',-0.090,0.135
'23:08.842',-0.080,0.145
'23:08.844',-0.075,0.160
'23:08.847',-0.060,0.155
'23:08.850',-0.055,0.165
'23:08.853',-0.055,0.160
'23:08.856',-0.055,0.155
'23:08.858',-0.065,0.155
'23:08.861',-0.075,0.135
'23:08.864',-0.070,0.135
'23:08.867',-0.085,0.135
'23:08.869',-0.080,0.135
'23:08.872',-0.095,0.140
'23:08.875',-0.080,0.150
'23:08.878',-0.075,0.145
'23:08.881',-0.070,0.145
'23:08.883',-0.055,0.145
'23:08.886',-0.065,0.130
'23:08.889',-0.075,0.125
'23:08.892',-0.070,0.125
'23:08.894',-0.080,0.120
'23:08.897',-0.080,0.125
'23:08.900',-0.075,0.125
'23:08.903',-0.070,0.140
'23:08.906',-0.075,0.140
'23:08.908',-0.070,0.135
'23:08.911',-0.075,0.140
'23:08.914',-0.070,0.140
'23:08.917',-0.060,0.140
'23:08.919',-0.065,0.135
'23:08.922',-0.065,0.135
'23:08.925',-0.070,0.125
'23:08.928',-0.075,0.115
'23:08.931',-0.100,0.110
'23:08.933',-0.100,0.100
'23:08.936',-0.100,0.100
'23:08.939',-0.100,0.110
'23:08.942',-0.085,0.125
'23:08.944',-0.080,0.120
'23:08.947',-0.070,0.125
'23:08.950',-0.080,0.115
'23:08.953',-0.085,0.105
'23:08.956',-0.100,0.100
'23:08.958',-0.100,0.090
'23:08.961',-0.105,0.080
'23:08.964',-0.135,0.080
'23:08.967',-0.125,0.075
'23:08.969',-0.120,0.070
'23:08.972',-0.115,0.085
'23:08.975',-0.100,0.090
'23:08.978',-0.100,0.105
'23:08.981',-0.080,0.095
'23:08.983',-0.075,0.085
'23:08.986',-0.080,0.080
'23:08.989',-0.085,0.080
'23:08.992',-0.100,0.060
'23:08.994',-0.105,0.075
'23:08.997',-0.115,0.060
'23:09.000',-0.125,0.065
'23:09.003',-0.100,0.065
'23:09.006',-0.110,0.055
'23:09.008',-0.100,0.065
'23:09.011',-0.105,0.055
'23:09.014',-0.085,0.075
'23:09.017',-0.090,0.075
'23:09.019',-0.095,0.090
'23:09.022',-0.105,0.060
'23:09.025',-0.120,0.060
'23:09.028',-0.125,0.050
'23:09.031',-0.130,0.055
'23:09.033',-0.155,0.045
'23:09.036',-0.150,0.050
'23:09.039',-0.140,0.060
'23:09.042',-0.135,0.075
'23:09.044',-0.110,0.080
'23:09.047',-0.095,0.085
'23:09.050',-0.080,0.085
'23:09.053',-0.075,0.085
'23:09.056',-0.065,0.075
'23:09.058',-0.070,0.085
'23:09.061',-0.080,0.075
'23:09.064',-0.085,0.075
'23:09.067',-0.085,0.075
'23:09.069',-0.095,0.080
'23:09.072',-0.100,0.090
'23:09.075',-0.095,0.110
'23:09.078',-0.080,0.100
'23:09.081',-0.065,0.105
'23:09.083',-0.065,0.100
'23:09.086',-0.075,0.075
'23:09.089',-0.095,0.080
'23:09.092',-0.090,0.070
'23:09.094',-0.105,0.060
'23:09.097',-0.110,0.055
'23:09.100',-0.110,0.050
'23:09.103',-0.095,0.050
'23:09.106',-0.105,0.065
'23:09.108',-0.105,0.070
'23:09.111',-0.095,0.075
'23:09.114',-0.085,0.075
'23:09.117',-0.070,0.085
'23:09.119',-0.075,0.085
'23:09.122',-0.080,0.075
'23:09.125',-0.090,0.070
'23:09.128',-0.095,0.065
'23:09.131',-0.095,0.060
'23:09.133',-0.100,0.060
'23:09.136',-0.100,0.060
'23:09.139',-0.100,0.075
'23:09.142',-0.085,0.080
'23:09.144',-0.095,0.085
'23:09.147',-0.090,0.080
'23:09.150',-0.095,0.080
'23:09.153',-0.105,0.080
'23:09.156',-0.100,0.070
'23:09.158',-0.110,0.065
'23:09.161',-0.115,0.070
'23:09.164',-0.120,0.065
'23:09.167',-0.130,0.060
'23:09.169',-0.140,0.060
'23:09.172',-0.140,0.070
'23:09.175',-0.125,0.070
'23:09.178',-0.120,0.085
'23:09.181',-0.140,0.095
'23:09.183',-0.120,0.075
'23:09.186',-0.110,0.075
'23:09.189',-0.105,0.075
'23:09.192',-0.125,0.075
'23:09.194',-0.125,0.050
'23:09.197',-0.125,0.050
'23:09.200',-0.140,0.050
'23:09.203',-0.145,0.060
'23:09.206',-0.155,0.060
'23:09.208',-0.145,0.075
'23:09.211',-0.135,0.095
'23:09.214',-0.130,0.100
'23:09.217',-0.125,0.100
'23:09.219',-0.135,0.100
'23:09.222',-0.125,0.095
'23:09.225',-0.140,0.080
'23:09.228',-0.145,0.085
'23:09.231',-0.155,0.070
'23:09.233',-0.160,0.065
'23:09.236',-0.160,0.070
'23:09.239',-0.155,0.080
'23:09.242',-0.145,0.085
'23:09.244',-0.140,0.090
'23:09.247',-0.125,0.085
'23:09.250',-0.120,0.090
'23:09.253',-0.125,0.090
'23:09.256',-0.115,0.095
'23:09.258',-0.120,0.100
'23:09.261',-0.130,0.085
'23:09.264',-0.140,0.095
'23:09.267',-0.155,0.100
'23:09.269',-0.170,0.090
'23:09.272',-0.155,0.105
'23:09.275',-0.140,0.100
'23:09.278',-0.135,0.115
'23:09.281',-0.120,0.105
'23:09.283',-0.120,0.100
'23:09.286',-0.120,0.095
'23:09.289',-0.135,0.100
'23:09.292',-0.135,0.090
'23:09.294',-0.145,0.075
'23:09.297',-0.160,0.050
'23:09.300',-0.150,0.030
'23:09.303',-0.145,0.035
'23:09.306',-0.130,0.050
'23:09.308',-0.115,0.065
'23:09.311',-0.100,0.090
'23:09.314',-0.105,0.090
'23:09.317',-0.110,0.070
'23:09.319',-0.125,0.060
'23:09.322',-0.110,0.060
'23:09.325',-0.120,0.055
'23:09.328',-0.115,0.045
'23:09.331',-0.120,0.040
'23:09.333',-0.125,0.055
'23:09.336',-0.125,0.060
'23:09.339',-0.120,0.075
'23:09.342',-0.110,0.070
'23:09.344',-0.110,0.090
'23:09.347',-0.105,0.090
'23:09.350',-0.090,0.095
'23:09.353',-0.090,0.075
'23:09.356',-0.090,0.080
'23:09.358',-0.085,0.075
'23:09.361',-0.105,0.060
'23:09.364',-0.110,0.060
'23:09.367',-0.115,0.055
'23:09.369',-0.115,0.040
'23:09.372',-0.115,0.040
'23:09.375',-0.110,0.065
'23:09.378',-0.100,0.070
'23:09.381',-0.100,0.085
'23:09.383',-0.100,0.090
'23:09.386',-0.085,0.085
'23:09.389',-0.090,0.065
'23:09.392',-0.090,0.050
'23:09.394',-0.100,0.050
'23:09.397',-0.100,0.050
'23:09.400',-0.120,0.050
'23:09.403',-0.110,0.055
'23:09.406',-0.120,0.060
'23:09.408',-0.120,0.045
'23:09.411',-0.110,0.055
'23:09.414',-0.100,0.060
'23:09.417',-0.095,0.045
'23:09.419',-0.105,0.045
'23:09.422',-0.110,0.040
'23:09.425',-0.115,0.045
'23:09.428',-0.125,0.045
'23:09.431',-0.145,0.035
'23:09.433',-0.155,0.030
'23:09.436',-0.150,0.025
'23:09.439',-0.140,0.030
'23:09.442',-0.125,0.040
'23:09.444',-0.115,0.050
'23:09.447',-0.110,0.060
'23:09.450',-0.110,0.060
'23:09.453',-0.120,0.060
'23:09.456',-0.130,0.040
'23:09.458',-0.145,0.035
'23:09.461',-0.140,0.030
'23:09.464',-0.155,0.015
'23:09.467',-0.155,0.020
'23:09.469',-0.160,0.030
'23:09.472',-0.165,0.040
'23:09.475',-0.145,0.030
'23:09.478',-0.130,0.015
'23:09.481',-0.120,0.040
'23:09.483',-0.110,0.030
'23:09.486',-0.125,0.020
'23:09.489',-0.135,0.020
'23:09.492',-0.145,0.010
'23:09.494',-0.150,0.010
'23:09.497',-0.150,0.010
'23:09.500',-0.165,0.005
'23:09.503',-0.170,0.010
'23:09.506',-0.180,0.015
'23:09.508',-0.165,0.020
'23:09.511',-0.155,0.015
'23:09.514',-0.145,0.020
'23:09.517',-0.140,0.020
'23:09.519',-0.130,0.020
'23:09.522',-0.130,0.005
'23:09.525',-0.140,-0.010
'23:09.528',-0.160,-0.020
'23:09.531',-0.155,-0.020
'23:09.533',-0.150,-0.020
'23:09.536',-0.145,-0.025
'23:09.539',-0.140,-0.005
'23:09.542',-0.135,0.000
'23:09.544',-0.130,0.005
'23:09.547',-0.130,0.020
'23:09.550',-0.120,0.020
'23:09.553',-0.145,0.010
'23:09.556',-0.150,0.010
'23:09.558',-0.160,-0.005
'23:09.561',-0.185,-0.010
'23:09.564',-0.190,-0.010
'23:09.567',-0.190,0.000
'23:09.569',-0.195,0.000
'23:09.572',-0.200,0.000
'23:09.575',-0.190,0.015
'23:09.578',-0.180,0.020
'23:09.581',-0.165,0.015
'23:09.583',-0.155,0.005
'23:09.586',-0.150,0.020
'23:09.589',-0.150,0.015
'23:09.592',-0.160,0.010
'23:09.594',-0.165,-0.005
'23:09.597',-0.170,-0.010
'23:09.600',-0.175,-0.015
'23:09.603',-0.190,-0.025
'23:09.606',-0.175,-0.010
'23:09.608',-0.185,0.005
'23:09.611',-0.170,0.015
'23:09.614',-0.165,0.020
'23:09.617',-0.165,0.035
'23:09.619',-0.180,0.030
'23:09.622',-0.180,0.015
'23:09.625',-0.185,0.005
'23:09.628',-0.195,0.000
'23:09.631',-0.215,0.000
'23:09.633',-0.205,0.015
'23:09.636',-0.205,0.010
'23:09.639',-0.205,0.005
'23:09.642',-0.205,0.030
'23:09.644',-0.200,0.025
'23:09.647',-0.190,0.035
'23:09.650',-0.175,0.045
'23:09.653',-0.180,0.035
'23:09.656',-0.190,0.025
'23:09.658',-0.195,0.020
'23:09.661',-0.205,0.005
'23:09.664',-0.210,0.015
'23:09.667',-0.215,0.000
'23:09.669',-0.200,0.005
'23:09.672',-0.185,0.020
'23:09.675',-0.190,0.015
'23:09.678',-0.185,0.015
'23:09.681',-0.185,0.030
'23:09.683',-0.175,0.030
'23:09.686',-0.175,0.035
'23:09.689',-0.175,0.020
'23:09.692',-0.190,0.005
'23:09.694',-0.210,-0.005
'23:09.697',-0.200,-0.005
'23:09.700',-0.205,0.000
'23:09.703',-0.205,0.005
'23:09.706',-0.200,0.015
'23:09.708',-0.215,0.015
'23:09.711',-0.210,0.010
'23:09.714',-0.200,0.015
'23:09.717',-0.195,-0.005
'23:09.719',-0.200,0.010
'23:09.722',-0.205,0.000
'23:09.725',-0.205,0.005
'23:09.728',-0.205,0.005
'23:09.731',-0.195,0.010
'23:09.733',-0.205,-0.010
'23:09.736',-0.210,0.000
'23:09.739',-0.215,0.000
'23:09.742',-0.200,0.010
'23:09.744',-0.200,0.020
'23:09.747',-0.200,0.025
'23:09.750',-0.200,0.020
'23:09.753',-0.190,0.010
'23:09.756',-0.195,0.000
'23:09.758',-0.190,-0.015
'23:09.761',-0.205,-0.010
'23:09.764',-0.205,-0.010
'23:09.767',-0.200,-0.010
'23:09.769',-0.205,0.000
'23:09.772',-0.220,0.000
'23:09.775',-0.230,0.010
'23:09.778',-0.230,0.000
'23:09.781',-0.225,0.020
'23:09.783',-0.205,0.015
'23:09.786',-0.210,0.010
'23:09.789',-0.200,0.005
'23:09.792',-0.195,0.020
'23:09.794',-0.185,0.015
'23:09.797',-0.180,0.015
'23:09.800',-0.175,0.010
'23:09.803',-0.185,0.015
'23:09.806',-0.180,0.020
'23:09.808',-0.175,0.015
'23:09.811',-0.160,0.040
'23:09.814',-0.140,0.050
'23:09.817',-0.130,0.055
'23:09.819',-0.125,0.045
'23:09.822',-0.135,0.040
'23:09.825',-0.125,0.030
'23:09.828',-0.130,0.015
'23:09.831',-0.155,-0.005
'23:09.833',-0.155,-0.020
'23:09.836',-0.150,-0.035
'23:09.839',-0.160,-0.020
'23:09.842',-0.165,-0.015
'23:09.844',-0.175,-0.015
'23:09.847',-0.170,0.010
'23:09.850',-0.160,0.015
'23:09.853',-0.165,0.005
'23:09.856',-0.180,0.005
'23:09.858',-0.165,0.000
'23:09.861',-0.160,-0.015
'23:09.864',-0.170,-0.025
'23:09.867',-0.175,-0.035
'23:09.869',-0.190,-0.015
'23:09.872',-0.180,-0.005
'23:09.875',-0.190,0.005
'23:09.878',-0.200,0.015
'23:09.881',-0.195,0.045
'23:09.883',-0.190,0.035
'23:09.886',-0.195,0.035
'23:09.889',-0.215,0.025
'23:09.892',-0.230,0.020
'23:09.894',-0.245,0.005
'23:09.897',-0.255,0.005
'23:09.900',-0.255,0.000
'23:09.903',-0.250,0.020
'23:09.906',-0.240,0.025
'23:09.908',-0.220,0.025
'23:09.911',-0.215,0.045
'23:09.914',-0.205,0.045
'23:09.917',-0.195,0.040
'23:09.919',-0.215,0.040
'23:09.922',-0.220,0.040
'23:09.925',-0.210,0.040
'23:09.928',-0.220,0.035
'23:09.931',-0.210,0.015
'23:09.933',-0.220,0.025
'23:09.936',-0.225,0.025
'23:09.939',-0.230,0.050
'23:09.942',-0.225,0.045
'23:09.944',-0.215,0.055
'23:09.947',-0.205,0.075
'23:09.950',-0.195,0.070
'23:09.953',-0.180,0.075
'23:09.956',-0.180,0.060
'23:09.958',-0.185,0.055
'23:09.961',-0.190,0.050
'23:09.964',-0.190,0.045
'23:09.967',-0.225,0.035
'23:09.969',-0.205,0.045
'23:09.972',-0.200,0.050
'23:09.975',-0.190,0.065
'23:09.978',-0.175,0.065
'23:09.981',-0.155,0.095
'23:09.983',-0.120,0.095
'23:09.986',-0.075,0.110
'23:09.989',-0.005,0.100
'23:09.992',0.105,0.075
'23:09.994',0.240,0.030
'23:09.997',0.395,-0.030
'23:10.000',0.550,-0.105
'23:10.003',0.700,-0.175
'23:10.006',0.775,-0.240
'23:10.008',0.725,-0.295
'23:10.011',0.515,-0.325
'23:10.014',0.215,-0.290
'23:10.017',-0.090,-0.235
'23:10.019',-0.335,-0.145
'23:10.022',-0.480,-0.025
'23:10.025',-0.555,0.095
'23:10.028',-0.555,0.185
'23:10.031',-0.515,0.250
'23:10.033',-0.460,0.275
'23:10.036',-0.415,0.290
'23:10.039',-0.375,0.300
'23:10.042',-0.365,0.305
'23:10.044',-0.380,0.335
'23:10.047',-0.395,0.360
'23:10.050',-0.390,0.395
'23:10.053',-0.385,0.420
'23:10.056',-0.350,0.435
'23:10.058',-0.320,0.455
'23:10.061',-0.290,0.480
'23:10.064',-0.300,0.490
'23:10.067',-0.315,0.505
'23:10.069',-0.340,0.510
'23:10.072',-0.355,0.535
'23:10.075',-0.345,0.525
'23:10.078',-0.355,0.510
'23:10.081',-0.325,0.475
'23:10.083',-0.305,0.430
'23:10.086',-0.290,0.355
'23:10.089',-0.275,0.295
'23:10.092',-0.265,0.230
'23:10.094',-0.245,0.160
'23:10.097',-0.235,0.110
'23:10.100',-0.220,0.075
'23:10.103',-0.205,0.040
'23:10.106',-0.185,0.015
'23:10.108',-0.180,0.020
'23:10.111',-0.155,0.020
'23:10.114',-0.160,0.025
'23:10.117',-0.155,0.025
'23:10.119',-0.155,0.025
'23:10.122',-0.170,0.020
'23:10.125',-0.180,0.005
'23:10.128',-0.175,0.010
'23:10.131',-0.185,-0.005
'23:10.133',-0.185,0.000
'23:10.136',-0.165,0.000
'23:10.139',-0.170,0.005
'23:10.142',-0.160,0.010
'23:10.144',-0.165,0.015
'23:10.147',-0.170,0.020
'23:10.150',-0.170,0.020
'23:10.153',-0.180,0.015
'23:10.156',-0.180,0.010
'23:10.158',-0.180,0.000
'23:10.161',-0.180,0.000
'23:10.164',-0.180,-0.005
'23:10.167',-0.175,-0.010
'23:10.169',-0.170,-0.005
'23:10.172',-0.170,0.000
'23:10.175',-0.170,0.005
'23:10.178',-0.155,0.025
'23:10.181',-0.145,0.015
'23:10.183',-0.155,0.010
'23:10.186',-0.150,0.010
'23:10.189',-0.150,0.020
'23:10.192',-0.145,0.010
'23:10.194',-0.140,0.005
'23:10.197',-0.135,-0.010
'23:10.200',-0.145,-0.010
'23:10.203',-0.140,-0.015
'23:10.206',-0.150,-0.020
'23:10.208',-0.145,-0.015
'23:10.211',-0.130,0.000
'23:10.214',-0.130,-0.005
'23:10.217',-0.120,0.000
'23:10.219',-0.110,-0.005
'23:10.222',-0.105,-0.010
'23:10.225',-0.105,-0.020
'23:10.228',-0.105,-0.045
'23:10.231',-0.105,-0.040
'23:10.233',-0.120,-0.050
'23:10.236',-0.105,-0.055
'23:10.239',-0.095,-0.050
'23:10.242',-0.095,-0.040
'23:10.244',-0.075,-0.025
'23:10.247',-0.060,-0.030
'23:10.250',-0.045,-0.025
'23:10.253',-0.045,-0.035
'23:10.256',-0.035,-0.045
'23:10.258',-0.030,-0.060
'23:10.261',-0.030,-0.060
'23:10.264',-0.020,-0.085
'23:10.267',-0.010,-0.080
'23:10.269',-0.005,-0.080
'23:10.272',0.000,-0.085
'23:10.275',0.015,-0.090
'23:10.278',0.035,-0.090
'23:10.281',0.050,-0.070
'23:10.283',0.050,-0.080
'23:10.286',0.065,-0.095
'23:10.289',0.065,-0.105
'23:10.292',0.070,-0.120
'23:10.294',0.060,-0.130
'23:10.297',0.050,-0.135
'23:10.300',0.055,-0.145
'23:10.303',0.070,-0.130
'23:10.306',0.075,-0.130
'23:10.308',0.080,-0.120
'23:10.311',0.085,-0.105
'23:10.314',0.095,-0.110
'23:10.317',0.115,-0.105
'23:10.319',0.115,-0.110
'23:10.322',0.115,-0.105
'23:10.325',0.105,-0.110
'23:10.328',0.095,-0.105
'23:10.331',0.080,-0.110
'23:10.333',0.075,-0.095
'23:10.336',0.065,-0.085
'23:10.339',0.060,-0.085
'23:10.342',0.060,-0.060
'23:10.344',0.045,-0.040
'23:10.347',0.045,-0.020
'23:10.350',0.040,-0.005
'23:10.353',0.025,-0.005
'23:10.356',0.015,0.000
'23:10.358',-0.010,0.005
'23:10.361',-0.020,0.000
'23:10.364',-0.035,0.000
'23:10.367',-0.060,0.015
'23:10.369',-0.060,0.030
'23:10.372',-0.065,0.045
'23:10.375',-0.080,0.050
'23:10.378',-0.080,0.060
'23:10.381',-0.070,0.070
'23:10.383',-0.070,0.055
'23:10.386',-0.085,0.075
'23:10.389',-0.105,0.055
'23:10.392',-0.120,0.055
'23:10.394',-0.125,0.060
'23:10.397',-0.130,0.050
'23:10.400',-0.130,0.050
'23:10.403',-0.140,0.055
'23:10.406',-0.145,0.075
'23:10.408',-0.140,0.075
'23:10.411',-0.135,0.065
'23:10.414',-0.125,0.085
'23:10.417',-0.125,0.070
'23:10.419',-0.145,0.065
'23:10.422',-0.140,0.055
'23:10.425',-0.160,0.050
'23:10.428',-0.165,0.050
'23:10.431',-0.165,0.055
'23:10.433',-0.175,0.045
'23:10.436',-0.160,0.050
'23:10.439',-0.180,0.060
'23:10.442',-0.155,0.055
'23:10.444',-0.150,0.070
'23:10.447',-0.130,0.070
'23:10.450',-0.130,0.075
'23:10.453',-0.125,0.075
'23:10.456',-0.130,0.065
'23:10.458',-0.145,0.045
'23:10.461',-0.150,0.055
'23:10.464',-0.155,0.055
'23:10.467',-0.150,0.050
'23:10.469',-0.145,0.050
'23:10.472',-0.155,0.055
'23:10.475',-0.155,0.060
'23:10.478',-0.155,0.070
'23:10.481',-0.145,0.065
'23:10.483',-0.135,0.065
'23:10.486',-0.140,0.060
'23:10.489',-0.140,0.055
'23:10.492',-0.150,0.060
'23:10.494',-0.145,0.045
'23:10.497',-0.145,0.050
'23:10.500',-0.160,0.050
'23:10.503',-0.145,0.030
'23:10.506',-0.140,0.035
'23:10.508',-0.135,0.045
'23:10.511',-0.125,0.045
'23:10.514',-0.115,0.050
'23:10.517',-0.100,0.050
'23:10.519',-0.135,0.055
'23:10.522',-0.135,0.055
'23:10.525',-0.140,0.030
'23:10.528',-0.145,0.030
'23:10.531',-0.150,0.025
'23:10.533',-0.140,0.035
'23:10.536',-0.145,0.035
'23:10.539',-0.130,0.040
'23:10.542',-0.135,0.050
'23:10.544',-0.130,0.055
'23:10.547',-0.140,0.060
'23:10.550',-0.145,0.060
'23:10.553',-0.145,0.050
'23:10.556',-0.155,0.045
'23:10.558',-0.155,0.050
'23:10.561',-0.160,0.040
'23:10.564',-0.160,0.045
'23:10.567',-0.160,0.050
'23:10.569',-0.170,0.045
'23:10.572',-0.165,0.045
'23:10.575',-0.155,0.055
'23:10.578',-0.155,0.055
'23:10.581',-0.145,0.065
'23:10.583',-0.130,0.065
'23:10.586',-0.125,0.070
'23:10.589',-0.125,0.075
'23:10.592',-0.130,0.050
'23:10.594',-0.135,0.050
'23:10.597',-0.145,0.040
'23:10.600',-0.150,0.045
'23:10.603',-0.155,0.055
'23:10.606',-0.165,0.050
'23:10.608',-0.170,0.060
'23:10.611',-0.155,0.070
'23:10.614',-0.150,0.070
'23:10.617',-0.150,0.070
'23:10.619',-0.155,0.055
'23:10.622',-0.145,0.050
'23:10.625',-0.150,0.050
'23:10.628',-0.155,0.030
'23:10.631',-0.155,0.040
'23:10.633',-0.165,0.040
'23:10.636',-0.165,0.045
'23:10.639',-0.170,0.060
'23:10.642',-0.165,0.055
'23:10.644',-0.170,0.065
'23:10.647',-0.170,0.065
'23:10.650',-0.150,0.060
'23:10.653',-0.145,0.055
'23:10.656',-0.140,0.050
'23:10.658',-0.140,0.050
'23:10.661',-0.145,0.045
'23:10.664',-0.150,0.040
'23:10.667',-0.175,0.040
'23:10.669',-0.170,0.030
'23:10.672',-0.175,0.035
'23:10.675',-0.190,0.030
'23:10.678',-0.170,0.050
'23:10.681',-0.170,0.045
'23:10.683',-0.160,0.060
'23:10.686',-0.165,0.060
'23:10.689',-0.155,0.050
'23:10.692',-0.170,0.060
'23:10.694',-0.160,0.045
'23:10.697',-0.170,0.050
'23:10.700',-0.165,0.045
'23:10.703',-0.165,0.055
'23:10.706',-0.160,0.060
'23:10.708',-0.160,0.060
'23:10.711',-0.150,0.060
'23:10.714',-0.155,0.070
'23:10.717',-0.145,0.065
'23:10.719',-0.145,0.055
'23:10.722',-0.155,0.055
'23:10.725',-0.150,0.050
'23:10.728',-0.170,0.050
'23:10.731',-0.175,0.055
'23:10.733',-0.175,0.045
'23:10.736',-0.165,0.045
'23:10.739',-0.170,0.040
'23:10.742',-0.175,0.065
'23:10.744',-0.160,0.070
'23:10.747',-0.155,0.075
'23:10.750',-0.165,0.080
'23:10.753',-0.170,0.075
'23:10.756',-0.160,0.070
'23:10.758',-0.170,0.040
'23:10.761',-0.160,0.035
'23:10.764',-0.155,0.040
'23:10.767',-0.165,0.030
'23:10.769',-0.160,0.035
'23:10.772',-0.155,0.050
'23:10.775',-0.160,0.060
'23:10.778',-0.155,0.060
'23:10.781',-0.150,0.060
'23:10.783',-0.150,0.070
'23:10.786',-0.145,0.060
'23:10.789',-0.150,0.065
'23:10.792',-0.150,0.050
'23:10.794',-0.150,0.050
'23:10.797',-0.160,0.025
'23:10.800',-0.170,0.025
'23:10.803',-0.170,0.020
'23:10.806',-0.180,0.030
'23:10.808',-0.165,0.045
'23:10.811',-0.165,0.040
'23:10.814',-0.150,0.050
'23:10.817',-0.145,0.060
'23:10.819',-0.150,0.050
'23:10.822',-0.150,0.040
'23:10.825',-0.150,0.040
'23:10.828',-0.155,0.025
'23:10.831',-0.155,0.025
'23:10.833',-0.175,0.025
'23:10.836',-0.175,0.015
'23:10.839',-0.165,0.020
'23:10.842',-0.165,0.040
'23:10.844',-0.145,0.050
'23:10.847',-0.140,0.050
'23:10.850',-0.130,0.060
'23:10.853',-0.140,0.055
'23:10.856',-0.145,0.045
'23:10.858',-0.150,0.055
'23:10.861',-0.165,0.035
'23:10.864',-0.150,0.025
'23:10.867',-0.165,0.015
'23:10.869',-0.165,0.020
'23:10.872',-0.170,0.015
'23:10.875',-0.165,0.015
'23:10.878',-0.170,0.025
'23:10.881',-0.175,0.025
'23:10.883',-0.145,0.040
'23:10.886',-0.145,0.030
'23:10.889',-0.130,0.020
'23:10.892',-0.140,0.030
'23:10.894',-0.140,0.025
'23:10.897',-0.145,0.010
'23:10.900',-0.150,0.015
'23:10.903',-0.145,0.015
'23:10.906',-0.150,0.020
'23:10.908',-0.145,0.045
'23:10.911',-0.135,0.035
'23:10.914',-0.145,0.050
'23:10.917',-0.140,0.045
'23:10.919',-0.150,0.035
'23:10.922',-0.135,0.030
'23:10.925',-0.140,0.025
'23:10.928',-0.150,0.015
'23:10.931',-0.150,0.025
'23:10.933',-0.165,0.015
'23:10.936',-0.160,0.025
'23:10.939',-0.175,0.015
'23:10.942',-0.175,0.020
'23:10.944',-0.165,0.030
'23:10.947',-0.145,0.040
'23:10.950',-0.135,0.035
'23:10.953',-0.125,0.020
'23:10.956',-0.120,0.025
'23:10.958',-0.120,0.030
'23:10.961',-0.125,0.020
'23:10.964',-0.140,0.010
'23:10.967',-0.150,0.005
'23:10.969',-0.145,0.020
'23:10.972',-0.160,0.030
'23:10.975',-0.145,0.050
'23:10.978',-0.125,0.055
'23:10.981',-0.120,0.055
'23:10.983',-0.115,0.050
'23:10.986',-0.125,0.050
'23:10.989',-0.120,0.050
'23:10.992',-0.115,0.035
'23:10.994',-0.120,0.025
'23:10.997',-0.125,0.015
'23:11.000',-0.145,0.010
'23:11.003',-0.150,0.010
'23:11.006',-0.140,0.035
'23:11.008',-0.140,0.040
'23:11.011',-0.135,0.040
'23:11.014',-0.135,0.055
'23:11.017',-0.120,0.050
'23:11.019',-0.120,0.035
'23:11.022',-0.115,0.045
'23:11.025',-0.110,0.045
'23:11.028',-0.115,0.030
'23:11.031',-0.130,0.030
'23:11.033',-0.135,0.020
'23:11.036',-0.155,0.025
'23:11.039',-0.155,0.010
'23:11.042',-0.140,0.025
'23:11.044',-0.130,0.030
'23:11.047',-0.145,0.040
'23:11.050',-0.130,0.030
'23:11.053',-0.135,0.035
'23:11.056',-0.120,0.030
'23:11.058',-0.115,0.015
'23:11.061',-0.125,0.020
'23:11.064',-0.140,0.020
'23:11.067',-0.145,0.020
'23:11.069',-0.150,0.020
'23:11.072',-0.140,0.030
'23:11.075',-0.135,0.040
'23:11.078',-0.130,0.050
'23:11.081',-0.120,0.040
'23:11.083',-0.110,0.045
'23:11.086',-0.115,0.040
'23:11.089',-0.110,0.030
'23:11.092',-0.105,0.030
'23:11.094',-0.115,0.035
'23:11.097',-0.115,0.025
'23:11.100',-0.125,0.030
'23:11.103',-0.130,0.040
'23:11.106',-0.125,0.040
'23:11.108',-0.120,0.045
'23:11.111',-0.115,0.040
'23:11.114',-0.110,0.045
'23:11.117',-0.115,0.055
'23:11.119',-0.110,0.045
'23:11.122',-0.105,0.040
'23:11.125',-0.110,0.025
'23:11.128',-0.115,0.010
'23:11.131',-0.120,0.015
'23:11.133',-0.125,0.015
'23:11.136',-0.130,0.015
'23:11.139',-0.125,0.025
'23:11.142',-0.135,0.025
'23:11.144',-0.130,0.050
'23:11.147',-0.120,0.030
'23:11.150',-0.110,0.040
'23:11.153',-0.125,0.030
'23:11.156',-0.110,0.025
'23:11.158',-0.110,0.015
'23:11.161',-0.115,0.025
'23:11.164',-0.120,0.035
'23:11.167',-0.125,0.030
'23:11.169',-0.130,0.035
'23:11.172',-0.125,0.025
'23:11.175',-0.110,0.035
'23:11.178',-0.105,0.030
'23:11.181',-0.105,0.050
'23:11.183',-0.105,0.035
'23:11.186',-0.095,0.030
'23:11.189',-0.100,0.035
'23:11.192',-0.115,0.035
'23:11.194',-0.120,0.025
'23:11.197',-0.130,0.030
'23:11.200',-0.145,0.020
'23:11.203',-0.140,0.020
'23:11.206',-0.140,0.005
'23:11.208',-0.135,0.025
'23:11.211',-0.130,0.035
'23:11.214',-0.110,0.045
'23:11.217',-0.095,0.040
'23:11.219',-0.100,0.040
'23:11.222',-0.100,0.055
'23:11.225',-0.085,0.030
'23:11.228',-0.085,0.045
'23:11.231',-0.085,0.030
'23:11.233',-0.070,0.020
'23:11.236',-0.070,0.025
'23:11.239',-0.060,0.035
'23:11.242',-0.060,0.045
'23:11.244',-0.045,0.055
'23:11.247',-0.045,0.060
'23:11.250',-0.040,0.065
'23:11.253',-0.045,0.045
'23:11.256',-0.035,0.040
'23:11.258',-0.040,0.015
'23:11.261',-0.040,0.005
'23:11.264',-0.050,-0.010
'23:11.267',-0.050,-0.020
'23:11.269',-0.070,-0.030
'23:11.272',-0.065,-0.035
'23:11.275',-0.055,-0.020
'23:11.278',-0.055,-0.010
'23:11.281',-0.060,-0.020
'23:11.283',-0.055,-0.010
'23:11.286',-0.065,-0.010
'23:11.289',-0.065,-0.015
'23:11.292',-0.080,-0.010
'23:11.294',-0.080,-0.010
'23:11.297',-0.090,-0.020
'23:11.300',-0.095,-0.015
'23:11.303',-0.090,-0.015
'23:11.306',-0.080,-0.025
'23:11.308',-0.070,-0.025
'23:11.311',-0.065,-0.005
'23:11.314',-0.050,0.010
'23:11.317',-0.055,0.025
'23:11.319',-0.065,0.035
'23:11.322',-0.070,0.030
'23:11.325',-0.105,0.020
'23:11.328',-0.125,0.000
'23:11.331',-0.130,0.000
'23:11.333',-0.140,-0.010
'23:11.336',-0.150,-0.005
'23:11.339',-0.145,0.015
'23:11.342',-0.150,0.025
'23:11.344',-0.155,0.035
'23:11.347',-0.140,0.035
'23:11.350',-0.120,0.030
'23:11.353',-0.125,0.030
'23:11.356',-0.120,0.025
'23:11.358',-0.120,0.010
'23:11.361',-0.125,0.015
'23:11.364',-0.125,0.005
'23:11.367',-0.135,0.000
'23:11.369',-0.150,0.005
'23:11.372',-0.145,0.000
'23:11.375',-0.140,0.015
'23:11.378',-0.135,0.020
'23:11.381',-0.130,0.045
'23:11.383',-0.120,0.040
'23:11.386',-0.115,0.035
'23:11.389',-0.125,0.020
'23:11.392',-0.135,0.010
'23:11.394',-0.135,0.000
'23:11.397',-0.150,-0.005
'23:11.400',-0.145,0.000
'23:11.403',-0.135,0.010
'23:11.406',-0.140,0.000
'23:11.408',-0.130,0.005
'23:11.411',-0.115,0.010
'23:11.414',-0.110,0.030
'23:11.417',-0.100,0.035
'23:11.419',-0.095,0.035
'23:11.422',-0.095,0.025
'23:11.425',-0.085,0.025
'23:11.428',-0.075,0.025
'23:11.431',-0.055,0.030
'23:11.433',-0.040,0.045
'23:11.436',-0.025,0.060
'23:11.439',0.005,0.070
'23:11.442',0.085,0.070
'23:11.444',0.185,0.050
'23:11.447',0.320,0.010
'23:11.450',0.475,-0.065
'23:11.453',0.625,-0.150
'23:11.456',0.760,-0.220
'23:11.458',0.805,-0.310
'23:11.461',0.750,-0.380
'23:11.464',0.560,-0.430
'23:11.467',0.285,-0.460
'23:11.469',0.010,-0.425
'23:11.472',-0.235,-0.340
'23:11.475',-0.400,-0.240
'23:11.478',-0.470,-0.110
'23:11.481',-0.470,0.025
'23:11.483',-0.435,0.125
'23:11.486',-0.415,0.205
'23:11.489',-0.385,0.255
'23:11.492',-0.355,0.275
'23:11.494',-0.360,0.290
'23:11.497',-0.340,0.295
'23:11.500',-0.365,0.305
'23:11.503',-0.365,0.315
'23:11.506',-0.365,0.360
'23:11.508',-0.355,0.390
'23:11.511',-0.330,0.430
'23:11.514',-0.295,0.450
'23:11.517',-0.255,0.485
'23:11.519',-0.230,0.515
'23:11.522',-0.235,0.520
'23:11.525',-0.265,0.530
'23:11.528',-0.290,0.540
'23:11.531',-0.285,0.535
'23:11.533',-0.290,0.530
'23:11.536',-0.290,0.495
'23:11.539',-0.280,0.445
'23:11.542',-0.260,0.405
'23:11.544',-0.235,0.345
'23:11.547',-0.215,0.280
'23:11.550',-0.190,0.220
'23:11.553',-0.155,0.160
'23:11.556',-0.135,0.110
'23:11.558',-0.120,0.065
'23:11.561',-0.110,0.015
'23:11.564',-0.110,0.000
'23:11.567',-0.115,-0.015
'23:11.569',-0.110,-0.015
'23:11.572',-0.120,0.000
'23:11.575',-0.115,0.005
'23:11.578',-0.105,0.015
'23:11.581',-0.080,0.005
'23:11.583',-0.075,0.015
'23:11.586',-0.075,0.010
'23:11.589',-0.070,-0.010
'23:11.592',-0.075,-0.010
'23:11.594',-0.090,-0.010
'23:11.597',-0.100,-0.020
'23:11.600',-0.105,-0.020
'23:11.603',-0.100,-0.015
'23:11.606',-0.105,-0.005
'23:11.608',-0.105,0.000
'23:11.611',-0.100,-0.005
'23:11.614',-0.095,0.010
'23:11.617',-0.085,-0.005
'23:11.619',-0.085,0.010
'23:11.622',-0.065,0.015
'23:11.625',-0.070,-0.005
'23:11.628',-0.065,-0.010
'23:11.631',-0.070,-0.030
'23:11.633',-0.075,-0.030
'23:11.636',-0.090,-0.040
'23:11.639',-0.080,-0.030
'23:11.642',-0.070,-0.025
'23:11.644',-0.065,-0.010
'23:11.647',-0.055,-0.025
'23:11.650',-0.045,-0.025
'23:11.653',-0.055,-0.025
'23:11.656',-0.055,-0.030
'23:11.658',-0.060,-0.040
'23:11.661',-0.070,-0.045
'23:11.664',-0.070,-0.060
'23:11.667',-0.070,-0.060
'23:11.669',-0.070,-0.055
'23:11.672',-0.065,-0.055
'23:11.675',-0.060,-0.050
'23:11.678',-0.045,-0.045
'23:11.681',-0.040,-0.055
'23:11.683',-0.020,-0.050
'23:11.686',-0.020,-0.060
'23:11.689',0.000,-0.060
'23:11.692',0.005,-0.065
'23:11.694',0.000,-0.085
'23:11.697',0.000,-0.075
'23:11.700',-0.005,-0.090
'23:11.703',0.000,-0.080
'23:11.706',0.025,-0.090
'23:11.708',0.025,-0.100
'23:11.711',0.055,-0.100
'23:11.714',0.065,-0.095
'23:11.717',0.095,-0.095
'23:11.719',0.100,-0.100
'23:11.722',0.110,-0.120
'23:11.725',0.100,-0.135
'23:11.728',0.110,-0.150
'23:11.731',0.115,-0.145
'23:11.733',0.120,-0.155
'23:11.736',0.115,-0.155
'23:11.739',0.130,-0.150
'23:11.742',0.150,-0.145
'23:11.744',0.170,-0.150
'23:11.747',0.180,-0.160
'23:11.750',0.200,-0.160
'23:11.753',0.190,-0.160
'23:11.756',0.200,-0.175
'23:11.758',0.200,-0.180
'23:11.761',0.200,-0.195
'23:11.764',0.185,-0.205
'23:11.767',0.200,-0.210
'23:11.769',0.190,-0.205
'23:11.772',0.190,-0.200
'23:11.775',0.190,-0.170
'23:11.778',0.205,-0.165
'23:11.781',0.195,-0.145
'23:11.783',0.185,-0.130
'23:11.786',0.175,-0.125
'23:11.789',0.170,-0.125
'23:11.792',0.150,-0.125
'23:11.794',0.140,-0.125
'23:11.797',0.125,-0.125
'23:11.800',0.125,-0.100
'23:11.803',0.105,-0.095
'23:11.806',0.090,-0.060
'23:11.808',0.085,-0.045
'23:11.811',0.075,-0.025
'23:11.814',0.065,-0.010
'23:11.817',0.050,0.000
'23:11.819',0.045,0.005
'23:11.822',0.020,0.010
'23:11.825',0.010,0.025
'23:11.828',-0.025,0.035
'23:11.831',-0.040,0.040
'23:11.833',-0.055,0.025
'23:11.836',-0.070,0.035
'23:11.839',-0.080,0.025
'23:11.842',-0.085,0.015
'23:11.844',-0.075,0.005
'23:11.847',-0.075,0.005
'23:11.850',-0.080,0.005
'23:11.853',-0.100,0.010
'23:11.856',-0.125,0.015
'23:11.858',-0.135,0.025
'23:11.861',-0.155,0.040
'23:11.864',-0.155,0.045
'23:11.867',-0.175,0.050
'23:11.869',-0.165,0.035
'23:11.872',-0.170,0.025
'23:11.875',-0.155,0.010
'23:11.878',-0.160,-0.005
'23:11.881',-0.160,-0.010
'23:11.883',-0.160,-0.020
'23:11.886',-0.160,-0.020
'23:11.889',-0.160,-0.025
'23:11.892',-0.170,-0.025
'23:11.894',-0.160,-0.025
'23:11.897',-0.160,-0.040
'23:11.900',-0.160,-0.035
'23:11.903',-0.160,-0.045
'23:11.906',-0.160,-0.040
'23:11.908',-0.145,-0.030
'23:11.911',-0.145,-0.025
'23:11.914',-0.120,-0.020
'23:11.917',-0.105,-0.020
'23:11.919',-0.100,-0.020
'23:11.922',-0.100,-0.010
'23:11.925',-0.105,-0.020
'23:11.928',-0.130,-0.020
'23:11.931',-0.130,-0.020
'23:11.933',-0.120,-0.020
'23:11.936',-0.120,-0.025
'23:11.939',-0.125,-0.020
'23:11.942',-0.110,-0.015
'23:11.944',-0.110,0.005
'23:11.947',-0.090,-0.005
'23:11.950',-0.090,0.000
'23:11.953',-0.090,-0.020
'23:11.956',-0.100,-0.030
'23:11.958',-0.115,-0.030
'23:11.961',-0.125,-0.045
'23:11.964',-0.125,-0.050
'23:11.967',-0.120,-0.050
'23:11.969',-0.125,-0.055
'23:11.972',-0.120,-0.040
'23:11.975',-0.105,-0.020
'23:11.978',-0.090,-0.015
'23:11.981',-0.080,-0.005
'23:11.983',-0.065,0.010
'23:11.986',-0.070,0.010
'23:11.989',-0.080,0.010
'23:11.992',-0.085,-0.010
'23:11.994',-0.095,-0.005
'23:11.997',-0.110,-0.015
'23:12.000',-0.115,-0.015
'23:12.003',-0.115,-0.010
'23:12.006',-0.115,-0.020
'23:12.008',-0.105,-0.005
'23:12.011',-0.095,0.010
'23:12.014',-0.090,0.005
'23:12.017',-0.090,0.010
'23:12.019',-0.080,0.010
'23:12.022',-0.090,0.010
'23:12.025',-0.100,0.010
'23:12.028',-0.105,-0.005
'23:12.031',-0.105,0.000
'23:12.033',-0.115,0.000
'23:12.036',-0.115,-0.005
'23:12.039',-0.120,0.010
'23:12.042',-0.125,0.005
'23:12.044',-0.110,0.025
'23:12.047',-0.095,0.025
'23:12.050',-0.095,0.030
'23:12.053',-0.105,0.020
'23:12.056',-0.120,0.010
'23:12.058',-0.110,0.000
'23:12.061',-0.120,-0.010
'23:12.064',-0.115,-0.020
'23:12.067',-0.115,-0.020
'23:12.069',-0.115,-0.010
'23:12.072',-0.105,0.000
'23:12.075',-0.090,-0.005
'23:12.078',-0.085,0.015
'23:12.081',-0.075,0.010
'23:12.083',-0.070,0.020
'23:12.086',-0.080,0.005
'23:12.089',-0.080,0.010
'23:12.092',-0.095,0.005
'23:12.094',-0.100,0.005
'23:12.097',-0.110,0.000
'23:12.100',-0.100,-0.010
'23:12.103',-0.085,0.005
'23:12.106',-0.075,0.020
'23:12.108',-0.040,0.050
'23:12.111',0.040,0.055
'23:12.114',0.125,0.040
'23:12.117',0.255,0.000
'23:12.119',0.385,-0.070
'23:12.122',0.530,-0.155
'23:12.125',0.645,-0.250
'23:12.128',0.715,-0.330
'23:12.131',0.715,-0.410
'23:12.133',0.635,-0.465
'23:12.136',0.445,-0.495
'23:12.139',0.185,-0.485
'23:12.142',-0.085,-0.430
'23:12.144',-0.290,-0.330
'23:12.147',-0.410,-0.205
'23:12.150',-0.445,-0.050
'23:12.153',-0.430,0.075
'23:12.156',-0.390,0.165
'23:12.158',-0.360,0.235
'23:12.161',-0.345,0.250
'23:12.164',-0.315,0.260
'23:12.167',-0.310,0.250
'23:12.169',-0.315,0.255
'23:12.172',-0.340,0.250
'23:12.175',-0.360,0.280
'23:12.178',-0.355,0.315
'23:12.181',-0.330,0.360
'23:12.183',-0.285,0.375
'23:12.186',-0.240,0.400
'23:12.189',-0.225,0.405
'23:12.192',-0.205,0.405
'23:12.194',-0.215,0.430
'23:12.197',-0.245,0.425
'23:12.200',-0.255,0.450
'23:12.203',-0.275,0.455
'23:12.206',-0.280,0.450
'23:12.208',-0.280,0.415
'23:12.211',-0.260,0.375
'23:12.214',-0.240,0.335
'23:12.217',-0.200,0.270
'23:12.219',-0.190,0.195
'23:12.222',-0.175,0.095
'23:12.225',-0.155,0.040
'23:12.228',-0.140,-0.025
'23:12.231',-0.115,-0.070
'23:12.233',-0.105,-0.100
'23:12.236',-0.095,-0.120
'23:12.239',-0.100,-0.135
'23:12.242',-0.100,-0.120
'23:12.244',-0.100,-0.105
'23:12.247',-0.100,-0.115
'23:12.250',-0.100,-0.095
'23:12.253',-0.090,-0.115
'23:12.256',-0.105,-0.105
'23:12.258',-0.110,-0.120
'23:12.261',-0.115,-0.130
'23:12.264',-0.115,-0.140
'23:12.267',-0.145,-0.140
'23:12.269',-0.150,-0.135
'23:12.272',-0.145,-0.135
'23:12.275',-0.120,-0.125
'23:12.278',-0.120,-0.115
'23:12.281',-0.105,-0.100
'23:12.283',-0.095,-0.095
'23:12.286',-0.105,-0.095
'23:12.289',-0.100,-0.095
'23:12.292',-0.100,-0.110
'23:12.294',-0.115,-0.110
'23:12.297',-0.125,-0.125
'23:12.300',-0.120,-0.120
'23:12.303',-0.125,-0.125
'23:12.306',-0.135,-0.115
'23:12.308',-0.135,-0.100
'23:12.311',-0.125,-0.095
'23:12.314',-0.120,-0.090
'23:12.317',-0.110,-0.115
'23:12.319',-0.120,-0.110
'23:12.322',-0.120,-0.120
'23:12.325',-0.105,-0.115
'23:12.328',-0.125,-0.120
'23:12.331',-0.125,-0.130
'23:12.333',-0.115,-0.135
'23:12.336',-0.115,-0.135
'23:12.339',-0.105,-0.130
'23:12.342',-0.100,-0.130
'23:12.344',-0.075,-0.110
'23:12.347',-0.070,-0.115
'23:12.350',-0.060,-0.100
'23:12.353',-0.050,-0.115
'23:12.356',-0.050,-0.120
'23:12.358',-0.055,-0.135
'23:12.361',-0.050,-0.140
'23:12.364',-0.045,-0.150
'23:12.367',-0.020,-0.165
'23:12.369',-0.030,-0.155
'23:12.372',-0.030,-0.155
'23:12.375',-0.030,-0.155
'23:12.378',-0.030,-0.160
'23:12.381',-0.015,-0.160
'23:12.383',0.010,-0.150
'23:12.386',0.020,-0.155
'23:12.389',0.025,-0.165
'23:12.392',0.040,-0.185
'23:12.394',0.055,-0.205
'23:12.397',0.065,-0.220
'23:12.400',0.065,-0.240
'23:12.403',0.080,-0.235
'23:12.406',0.080,-0.235
'23:12.408',0.100,-0.220
'23:12.411',0.120,-0.215
'23:12.414',0.130,-0.220
'23:12.417',0.150,-0.220
'23:12.419',0.145,-0.230
'23:12.422',0.155,-0.230
'23:12.425',0.150,-0.255
'23:12.428',0.155,-0.260
'23:12.431',0.150,-0.270
'23:12.433',0.160,-0.265
'23:12.436',0.150,-0.270
'23:12.439',0.155,-0.250
'23:12.442',0.145,-0.240
'23:12.444',0.160,-0.235
'23:12.447',0.155,-0.225
'23:12.450',0.155,-0.215
'23:12.453',0.150,-0.210
'23:12.456',0.125,-0.185
'23:12.458',0.120,-0.175
'23:12.461',0.100,-0.180
'23:12.464',0.090,-0.170
'23:12.467',0.060,-0.155
'23:12.469',0.055,-0.140
'23:12.472',0.030,-0.110
'23:12.475',0.005,-0.095
'23:12.478',0.000,-0.085
'23:12.481',-0.010,-0.065
'23:12.483',-0.020,-0.040
'23:12.486',-0.020,-0.040
'23:12.489',-0.030,-0.030
'23:12.492',-0.050,-0.030
'23:12.494',-0.060,-0.020
'23:12.497',-0.085,-0.030
'23:12.500',-0.105,-0.020
'23:12.503',-0.120,-0.025
'23:12.506',-0.135,0.000
'23:12.508',-0.150,0.010
'23:12.511',-0.155,0.015
'23:12.514',-0.165,0.030
'23:12.517',-0.165,0.020
'23:12.519',-0.170,0.025
'23:12.522',-0.170,0.030
'23:12.525',-0.155,0.025
'23:12.528',-0.175,0.000
'23:12.531',-0.180,0.005
'23:12.533',-0.195,0.005
'23:12.536',-0.190,0.010
'23:12.539',-0.195,0.010
'23:12.542',-0.200,0.015
'23:12.544',-0.195,0.020
'23:12.547',-0.195,0.025
'23:12.550',-0.180,0.035
'23:12.553',-0.180,0.010
'23:12.556',-0.175,0.025
'23:12.558',-0.175,0.020
'23:12.561',-0.190,0.030
'23:12.564',-0.190,0.010
'23:12.567',-0.205,0.005
'23:12.569',-0.195,0.000
'23:12.572',-0.205,0.000
'23:12.575',-0.195,0.010
'23:12.578',-0.195,0.025
'23:12.581',-0.200,0.030
'23:12.583',-0.190,0.025
'23:12.586',-0.200,0.025
'23:12.589',-0.205,0.015
'23:12.592',-0.200,0.010
'23:12.594',-0.205,-0.010
'23:12.597',-0.210,-0.015
'23:12.600',-0.215,-0.025
'23:12.603',-0.215,-0.010
'23:12.606',-0.210,-0.005
'23:12.608',-0.205,0.015
'23:12.611',-0.200,0.030
'23:12.614',-0.205,0.035
'23:12.617',-0.200,0.015
'23:12.619',-0.215,-0.005
'23:12.622',-0.235,-0.015
'23:12.625',-0.225,-0.050
'23:12.628',-0.220,-0.065
'23:12.631',-0.230,-0.080
'23:12.633',-0.215,-0.070
'23:12.636',-0.220,-0.065
'23:12.639',-0.225,-0.050
'23:12.642',-0.230,-0.055
'23:12.644',-0.225,-0.045
'23:12.647',-0.235,-0.045
'23:12.650',-0.220,-0.055
'23:12.653',-0.215,-0.055
'23:12.656',-0.205,-0.055
'23:12.658',-0.195,-0.055
'23:12.661',-0.185,-0.050
'23:12.664',-0.180,-0.045
'23:12.667',-0.200,-0.050
'23:12.669',-0.200,-0.050
'23:12.672',-0.205,-0.045
'23:12.675',-0.195,-0.030
'23:12.678',-0.190,-0.015
'23:12.681',-0.190,-0.005
'23:12.683',-0.185,-0.010
'23:12.686',-0.200,-0.010
'23:12.689',-0.200,-0.045
'23:12.692',-0.215,-0.070
'23:12.694',-0.230,-0.090
'23:12.697',-0.230,-0.115
'23:12.700',-0.230,-0.115
'23:12.703',-0.225,-0.110
'23:12.706',-0.210,-0.080
'23:12.708',-0.210,-0.060
'23:12.711',-0.215,-0.050
'23:12.714',-0.220,-0.030
'23:12.717',-0.210,-0.030
'23:12.719',-0.215,-0.035
'23:12.722',-0.235,-0.030
'23:12.725',-0.230,-0.030
'23:12.728',-0.210,-0.025
'23:12.731',-0.205,-0.025
'23:12.733',-0.205,-0.015
'23:12.736',-0.210,-0.005
'23:12.739',-0.215,-0.020
'23:12.742',-0.215,-0.005
'23:12.744',-0.210,-0.015
'23:12.747',-0.210,-0.005
'23:12.750',-0.205,0.010
'23:12.753',-0.205,0.005
'23:12.756',-0.215,0.010
'23:12.758',-0.220,0.005
'23:12.761',-0.235,-0.005
'23:12.764',-0.245,-0.015
'23:12.767',-0.260,-0.015
'23:12.769',-0.255,-0.010
'23:12.772',-0.260,-0.015
'23:12.775',-0.255,0.000
'23:12.778',-0.240,0.015
'23:12.781',-0.235,0.010
'23:12.783',-0.235,0.020
'23:12.786',-0.220,0.005
'23:12.789',-0.225,0.010
'23:12.792',-0.230,0.005
'23:12.794',-0.230,0.000
'23:12.797',-0.235,-0.005
'23:12.800',-0.235,0.000
'23:12.803',-0.230,0.005
'23:12.806',-0.230,0.010
'23:12.808',-0.220,0.010
'23:12.811',-0.215,0.015
'23:12.814',-0.220,0.005
'23:12.817',-0.210,0.015
'23:12.819',-0.200,0.010
'23:12.822',-0.215,0.010
'23:12.825',-0.220,0.000
'23:12.828',-0.215,0.010
'23:12.831',-0.220,-0.005
'23:12.833',-0.220,-0.005
'23:12.836',-0.225,-0.015
'23:12.839',-0.235,0.000
'23:12.842',-0.215,0.000
'23:12.844',-0.190,0.015
'23:12.847',-0.180,0.050
'23:12.850',-0.140,0.060
'23:12.853',-0.080,0.065
'23:12.856',0.025,0.050
'23:12.858',0.180,0.020
'23:12.861',0.355,-0.035
'23:12.864',0.540,-0.095
'23:12.867',0.695,-0.160
'23:12.869',0.795,-0.215
'23:12.872',0.775,-0.280
'23:12.875',0.620,-0.320
'23:12.878',0.330,-0.320
'23:12.881',0.000,-0.295
'23:12.883',-0.245,-0.230
'23:12.886',-0.445,-0.130
'23:12.889',-0.520,-0.035
'23:12.892',-0.540,0.050
'23:12.894',-0.530,0.120
'23:12.897',-0.520,0.160
'23:12.900',-0.500,0.185
'23:12.903',-0.470,0.190
'23:12.906',-0.455,0.205
'23:12.908',-0.430,0.225
'23:12.911',-0.425,0.225
'23:12.914',-0.435,0.260
'23:12.917',-0.445,0.270
'23:12.919',-0.465,0.280
'23:12.922',-0.460,0.310
'23:12.925',-0.425,0.320
'23:12.928',-0.390,0.330
'23:12.931',-0.360,0.335
'23:12.933',-0.340,0.355
'23:12.936',-0.340,0.390
'23:12.939',-0.355,0.405
'23:12.942',-0.365,0.425
'23:12.944',-0.385,0.445
'23:12.947',-0.385,0.435
'23:12.950',-0.370,0.420
'23:12.953',-0.360,0.390
'23:12.956',-0.355,0.355
'23:12.958',-0.345,0.300
'23:12.961',-0.335,0.245
'23:12.964',-0.325,0.190
'23:12.967',-0.320,0.130
'23:12.969',-0.295,0.090
'23:12.972',-0.270,0.050
'23:12.975',-0.255,0.020
'23:12.978',-0.225,0.005
'23:12.981',-0.215,0.005
'23:12.983',-0.190,-0.005
'23:12.986',-0.195,-0.010
'23:12.989',-0.200,-0.005
'23:12.992',-0.205,-0.025
'23:12.994',-0.210,-0.035
'23:12.997',-0.230,-0.035
'23:13.000',-0.220,-0.045
'23:13.003',-0.225,-0.045
'23:13.006',-0.215,-0.045
'23:13.008',-0.200,-0.035
'23:13.011',-0.205,-0.020
'23:13.014',-0.185,-0.035
'23:13.017',-0.175,-0.025
'23:13.019',-0.175,-0.050
'23:13.022',-0.175,-0.060
'23:13.025',-0.175,-0.070
'23:13.028',-0.185,-0.070
'23:13.031',-0.195,-0.080
'23:13.033',-0.195,-0.085
'23:13.036',-0.200,-0.080
'23:13.039',-0.195,-0.075
'23:13.042',-0.190,-0.055
'23:13.044',-0.200,-0.050
'23:13.047',-0.190,-0.050
'23:13.050',-0.175,-0.050
'23:13.053',-0.170,-0.070
'23:13.056',-0.175,-0.065
'23:13.058',-0.165,-0.085
'23:13.061',-0.175,-0.095
'23:13.064',-0.175,-0.095
'23:13.067',-0.170,-0.095
'23:13.069',-0.170,-0.095
'23:13.072',-0.160,-0.090
'23:13.075',-0.155,-0.085
'23:13.078',-0.145,-0.070
'23:13.081',-0.140,-0.070
'23:13.083',-0.120,-0.075
'23:13.086',-0.130,-0.090
'23:13.089',-0.120,-0.100
'23:13.092',-0.115,-0.105
'23:13.094',-0.125,-0.125
'23:13.097',-0.130,-0.130
'23:13.100',-0.130,-0.135
'23:13.103',-0.130,-0.120
'23:13.106',-0.115,-0.125
'23:13.108',-0.110,-0.120
'23:13.111',-0.100,-0.130
'23:13.114',-0.075,-0.120
'23:13.117',-0.075,-0.135
'23:13.119',-0.070,-0.145
'23:13.122',-0.040,-0.150
'23:13.125',-0.035,-0.155
'23:13.128',-0.025,-0.155
'23:13.131',-0.010,-0.160
'23:13.133',-0.020,-0.170
'23:13.136',-0.005,-0.160
'23:13.139',-0.005,-0.170
'23:13.142',0.010,-0.170
'23:13.144',0.030,-0.185
'23:13.147',0.040,-0.165
'23:13.150',0.060,-0.180
'23:13.153',0.060,-0.180
'23:13.156',0.065,-0.195
'23:13.158',0.060,-0.210
'23:13.161',0.065,-0.205
'23:13.164',0.080,-0.220
'23:13.167',0.080,-0.220
'23:13.169',0.085,-0.215
'23:13.172',0.090,-0.210
'23:13.175',0.080,-0.215
'23:13.178',0.095,-0.205
'23:13.181',0.105,-0.190
'23:13.183',0.110,-0.195
'23:13.186',0.120,-0.200
'23:13.189',0.115,-0.185
'23:13.192',0.105,-0.195
'23:13.194',0.090,-0.185
'23:13.197',0.090,-0.185
'23:13.200',0.075,-0.180
'23:13.203',0.065,-0.145
'23:13.206',0.050,-0.150
'23:13.208',0.050,-0.130
'23:13.211',0.045,-0.105
'23:13.214',0.030,-0.095
