'Elapsed time','MLII','V1'
'hh:mm:ss.mmm','mV','mV'
'22:00.000',-0.210,0.165
'22:00.003',-0.200,0.160
'22:00.006',-0.170,0.175
'22:00.008',-0.160,0.185
'22:00.011',-0.125,0.195
'22:00.014',-0.090,0.190
'22:00.017',-0.070,0.180
'22:00.019',-0.025,0.170
'22:00.022',0.005,0.175
'22:00.025',0.055,0.165
'22:00.028',0.125,0.165
'22:00.031',0.170,0.160
'22:00.033',0.225,0.140
'22:00.036',0.285,0.150
'22:00.039',0.365,0.140
'22:00.042',0.445,0.150
'22:00.044',0.540,0.155
'22:00.047',0.605,0.155
'22:00.050',0.615,0.135
'22:00.053',0.545,0.095
'22:00.056',0.385,0.055
'22:00.058',0.135,0.020
'22:00.061',-0.195,-0.025
'22:00.064',-0.585,-0.065
'22:00.067',-0.960,-0.075
'22:00.069',-1.270,-0.080
'22:00.072',-1.505,-0.070
'22:00.075',-1.675,-0.060
'22:00.078',-1.790,-0.060
'22:00.081',-1.895,-0.050
'22:00.083',-1.980,-0.025
'22:00.086',-2.030,0.025
'22:00.089',-2.080,0.110
'22:00.092',-2.100,0.225
'22:00.094',-2.115,0.365
'22:00.097',-2.115,0.510
'22:00.100',-2.090,0.665
'22:00.103',-2.040,0.810
'22:00.106',-1.955,0.940
'22:00.108',-1.845,1.050
'22:00.111',-1.725,1.130
'22:00.114',-1.605,1.175
'22:00.117',-1.510,1.210
'22:00.119',-1.460,1.260
'22:00.122',-1.420,1.300
'22:00.125',-1.385,1.325
'22:00.128',-1.355,1.340
'22:00.131',-1.270,1.295
'22:00.133',-1.185,1.205
'22:00.136',-1.090,1.035
'22:00.139',-1.030,0.810
'22:00.142',-0.990,0.550
'22:00.144',-0.955,0.290
'22:00.147',-0.890,0.060
'22:00.150',-0.840,-0.085
'22:00.153',-0.770,-0.145
'22:00.156',-0.675,-0.140
'22:00.158',-0.570,-0.095
'22:00.161',-0.455,-0.045
'22:00.164',-0.325,0.005
'22:00.167',-0.195,0.045
'22:00.169',-0.075,0.070
'22:00.172',0.015,0.080
'22:00.175',0.085,0.085
'22:00.178',0.125,0.065
'22:00.181',0.145,0.030
'22:00.183',0.150,-0.020
'22:00.186',0.155,-0.065
'22:00.189',0.160,-0.105
'22:00.192',0.165,-0.115
'22:00.194',0.180,-0.090
'22:00.197',0.200,-0.060
'22:00.200',0.215,-0.040
'22:00.203',0.220,-0.025
'22:00.206',0.230,-0.030
'22:00.208',0.255,-0.025
'22:00.211',0.270,-0.010
'22:00.214',0.290,-0.010
'22:00.217',0.290,-0.015
'22:00.219',0.305,-0.020
'22:00.222',0.300,-0.025
'22:00.225',0.305,-0.040
'22:00.228',0.310,-0.055
'22:00.231',0.320,-0.060
'22:00.233',0.340,-0.055
'22:00.236',0.360,-0.050
'22:00.239',0.385,-0.035
'22:00.242',0.410,-0.030
'22:00.244',0.445,-0.020
'22:00.247',0.445,-0.030
'22:00.250',0.460,-0.035
'22:00.253',0.470,-0.045
'22:00.256',0.465,-0.060
'22:00.258',0.470,-0.080
'22:00.261',0.475,-0.085
'22:00.264',0.495,-0.090
'22:00.267',0.510,-0.095
'22:00.269',0.535,-0.095
'22:00.272',0.575,-0.095
'22:00.275',0.605,-0.100
'22:00.278',0.615,-0.080
'22:00.281',0.665,-0.080
'22:00.283',0.675,-0.080
'22:00.286',0.695,-0.090
'22:00.289',0.700,-0.100
'22:00.292',0.710,-0.115
'22:00.294',0.715,-0.135
'22:00.297',0.715,-0.145
'22:00.300',0.720,-0.140
'22:00.303',0.730,-0.135
'22:00.306',0.740,-0.115
'22:00.308',0.750,-0.125
'22:00.311',0.765,-0.130
'22:00.314',0.765,-0.145
'22:00.317',0.755,-0.160
'22:00.319',0.755,-0.150
'22:00.322',0.735,-0.165
'22:00.325',0.710,-0.175
'22:00.328',0.685,-0.180
'22:00.331',0.660,-0.180
'22:00.333',0.625,-0.175
'22:00.336',0.600,-0.170
'22:00.339',0.570,-0.165
'22:00.342',0.545,-0.160
'22:00.344',0.525,-0.155
'22:00.347',0.500,-0.145
'22:00.350',0.475,-0.135
'22:00.353',0.430,-0.125
'22:00.356',0.395,-0.125
'22:00.358',0.345,-0.130
'22:00.361',0.305,-0.105
'22:00.364',0.270,-0.095
'22:00.367',0.230,-0.060
'22:00.369',0.200,-0.050
'22:00.372',0.175,-0.005
'22:00.375',0.160,0.015
'22:00.378',0.130,0.035
'22:00.381',0.105,0.055
'22:00.383',0.075,0.080
'22:00.386',0.055,0.100
'22:00.389',0.035,0.120
'22:00.392',0.015,0.145
'22:00.394',0.000,0.135
'22:00.397',-0.030,0.150
'22:00.400',-0.040,0.170
'22:00.403',-0.050,0.175
'22:00.406',-0.050,0.190
'22:00.408',-0.075,0.195
'22:00.411',-0.085,0.210
'22:00.414',-0.080,0.220
'22:00.417',-0.090,0.205
'22:00.419',-0.090,0.220
'22:00.422',-0.095,0.215
'22:00.425',-0.095,0.215
'22:00.428',-0.115,0.200
'22:00.431',-0.115,0.200
'22:00.433',-0.110,0.205
'22:00.436',-0.105,0.220
'22:00.439',-0.095,0.235
'22:00.442',-0.095,0.240
'22:00.444',-0.090,0.230
'22:00.447',-0.080,0.230
'22:00.450',-0.085,0.220
'22:00.453',-0.095,0.190
'22:00.456',-0.100,0.190
'22:00.458',-0.110,0.195
'22:00.461',-0.110,0.195
'22:00.464',-0.110,0.195
'22:00.467',-0.105,0.205
'22:00.469',-0.100,0.205
'22:00.472',-0.100,0.200
'22:00.475',-0.110,0.210
'22:00.478',-0.095,0.215
'22:00.481',-0.090,0.220
'22:00.483',-0.095,0.205
'22:00.486',-0.100,0.210
'22:00.489',-0.110,0.205
'22:00.492',-0.115,0.190
'22:00.494',-0.115,0.185
'22:00.497',-0.120,0.190
'22:00.500',-0.130,0.195
'22:00.503',-0.120,0.200
'22:00.506',-0.130,0.200
'22:00.508',-0.105,0.210
'22:00.511',-0.105,0.215
'22:00.514',-0.115,0.215
'22:00.517',-0.110,0.195
'22:00.519',-0.125,0.205
'22:00.522',-0.135,0.200
'22:00.525',-0.140,0.180
'22:00.528',-0.155,0.190
'22:00.531',-0.160,0.175
'22:00.533',-0.155,0.180
'22:00.536',-0.150,0.180
'22:00.539',-0.170,0.190
'22:00.542',-0.170,0.175
'22:00.544',-0.160,0.195
'22:00.547',-0.135,0.185
'22:00.550',-0.130,0.180
'22:00.553',-0.120,0.180
'22:00.556',-0.125,0.180
'22:00.558',-0.135,0.180
'22:00.561',-0.155,0.175
'22:00.564',-0.175,0.180
'22:00.567',-0.195,0.180
'22:00.569',-0.190,0.190
'22:00.572',-0.190,0.190
'22:00.575',-0.190,0.175
'22:00.578',-0.185,0.185
'22:00.581',-0.175,0.185
'22:00.583',-0.170,0.190
'22:00.586',-0.175,0.195
'22:00.589',-0.185,0.175
'22:00.592',-0.200,0.170
'22:00.594',-0.210,0.160
'22:00.597',-0.215,0.155
'22:00.600',-0.200,0.155
'22:00.603',-0.200,0.165
'22:00.606',-0.210,0.165
'22:00.608',-0.200,0.190
'22:00.611',-0.205,0.190
'22:00.614',-0.200,0.185
'22:00.617',-0.200,0.185
'22:00.619',-0.190,0.170
'22:00.622',-0.190,0.165
'22:00.625',-0.205,0.150
'22:00.628',-0.215,0.150
'22:00.631',-0.235,0.145
'22:00.633',-0.240,0.150
'22:00.636',-0.245,0.160
'22:00.639',-0.230,0.165
'22:00.642',-0.210,0.165
'22:00.644',-0.200,0.165
'22:00.647',-0.190,0.170
'22:00.650',-0.195,0.160
'22:00.653',-0.200,0.150
'22:00.656',-0.190,0.160
'22:00.658',-0.205,0.150
'22:00.661',-0.205,0.145
'22:00.664',-0.215,0.155
'22:00.667',-0.220,0.150
'22:00.669',-0.230,0.160
'22:00.672',-0.235,0.150
'22:00.675',-0.230,0.165
'22:00.678',-0.225,0.165
'22:00.681',-0.220,0.170
'22:00.683',-0.220,0.180
'22:00.686',-0.215,0.165
'22:00.689',-0.215,0.170
'22:00.692',-0.225,0.160
'22:00.694',-0.225,0.150
'22:00.697',-0.225,0.155
'22:00.700',-0.215,0.145
'22:00.703',-0.225,0.145
'22:00.706',-0.230,0.160
'22:00.708',-0.225,0.165
'22:00.711',-0.205,0.190
'22:00.714',-0.210,0.190
'22:00.717',-0.210,0.185
'22:00.719',-0.200,0.160
'22:00.722',-0.205,0.150
'22:00.725',-0.210,0.145
'22:00.728',-0.225,0.135
'22:00.731',-0.240,0.140
'22:00.733',-0.225,0.150
'22:00.736',-0.225,0.160
'22:00.739',-0.215,0.165
'22:00.742',-0.200,0.170
'22:00.744',-0.195,0.170
'22:00.747',-0.205,0.170
'22:00.750',-0.200,0.165
'22:00.753',-0.205,0.170
'22:00.756',-0.210,0.155
'22:00.758',-0.220,0.160
'22:00.761',-0.220,0.150
'22:00.764',-0.220,0.150
'22:00.767',-0.220,0.150
'22:00.769',-0.200,0.170
'22:00.772',-0.170,0.190
'22:00.775',-0.150,0.220
'22:00.778',-0.130,0.250
'22:00.781',-0.105,0.270
'22:00.783',-0.110,0.300
'22:00.786',-0.075,0.305
'22:00.789',-0.080,0.320
'22:00.792',-0.085,0.315
'22:00.794',-0.085,0.315
'22:00.797',-0.085,0.300
'22:00.800',-0.070,0.295
'22:00.803',-0.050,0.290
'22:00.806',-0.020,0.280
'22:00.808',0.010,0.260
'22:00.811',0.075,0.230
'22:00.814',0.110,0.210
'22:00.817',0.115,0.185
'22:00.819',0.125,0.185
'22:00.822',0.095,0.175
'22:00.825',0.065,0.160
'22:00.828',0.035,0.150
'22:00.831',0.030,0.135
'22:00.833',0.025,0.140
'22:00.836',0.040,0.135
'22:00.839',0.050,0.125
'22:00.842',0.060,0.110
'22:00.844',0.055,0.110
'22:00.847',0.010,0.105
'22:00.850',-0.010,0.085
'22:00.853',-0.045,0.080
'22:00.856',-0.065,0.080
'22:00.858',-0.100,0.080
'22:00.861',-0.110,0.105
'22:00.864',-0.130,0.110
'22:00.867',-0.150,0.130
'22:00.869',-0.170,0.125
'22:00.872',-0.180,0.145
'22:00.875',-0.185,0.140
'22:00.878',-0.200,0.155
'22:00.881',-0.200,0.155
'22:00.883',-0.215,0.145
'22:00.886',-0.225,0.140
'22:00.889',-0.230,0.130
'22:00.892',-0.235,0.090
'22:00.894',-0.240,0.080
'22:00.897',-0.235,0.100
'22:00.900',-0.245,0.085
'22:00.903',-0.235,0.110
'22:00.906',-0.230,0.115
'22:00.908',-0.225,0.135
'22:00.911',-0.230,0.160
'22:00.914',-0.215,0.165
'22:00.917',-0.225,0.190
'22:00.919',-0.210,0.235
'22:00.922',-0.165,0.275
'22:00.925',-0.095,0.315
'22:00.928',0.025,0.335
'22:00.931',0.165,0.305
'22:00.933',0.355,0.230
'22:00.936',0.545,0.095
'22:00.939',0.725,-0.070
'22:00.942',0.910,-0.280
'22:00.944',1.065,-0.525
'22:00.947',1.230,-0.875
'22:00.950',1.375,-1.255
'22:00.953',1.485,-1.640
'22:00.956',1.550,-1.940
'22:00.958',1.535,-2.140
'22:00.961',1.490,-2.185
'22:00.964',1.370,-2.120
'22:00.967',1.190,-1.990
'22:00.969',0.955,-1.805
'22:00.972',0.670,-1.600
'22:00.975',0.385,-1.390
'22:00.978',0.170,-1.150
'22:00.981',0.035,-0.930
'22:00.983',-0.040,-0.715
'22:00.986',-0.080,-0.565
'22:00.989',-0.105,-0.445
'22:00.992',-0.140,-0.340
'22:00.994',-0.185,-0.260
'22:00.997',-0.230,-0.185
'22:01.000',-0.295,-0.115
'22:01.003',-0.355,-0.045
'22:01.006',-0.400,0.035
'22:01.008',-0.420,0.105
'22:01.011',-0.420,0.145
'22:01.014',-0.405,0.175
'22:01.017',-0.405,0.180
'22:01.019',-0.390,0.180
'22:01.022',-0.395,0.185
'22:01.025',-0.415,0.180
'22:01.028',-0.435,0.185
'22:01.031',-0.460,0.195
'22:01.033',-0.460,0.205
'22:01.036',-0.445,0.215
'22:01.039',-0.450,0.230
'22:01.042',-0.450,0.240
'22:01.044',-0.435,0.260
'22:01.047',-0.435,0.275
'22:01.050',-0.445,0.285
'22:01.053',-0.435,0.280
'22:01.056',-0.455,0.280
'22:01.058',-0.455,0.280
'22:01.061',-0.465,0.265
'22:01.064',-0.475,0.285
'22:01.067',-0.470,0.295
'22:01.069',-0.475,0.295
'22:01.072',-0.475,0.315
'22:01.075',-0.475,0.320
'22:01.078',-0.470,0.340
'22:01.081',-0.475,0.340
'22:01.083',-0.465,0.350
'22:01.086',-0.460,0.345
'22:01.089',-0.460,0.355
'22:01.092',-0.470,0.345
'22:01.094',-0.475,0.360
'22:01.097',-0.500,0.355
'22:01.100',-0.510,0.350
'22:01.103',-0.495,0.375
'22:01.106',-0.495,0.385
'22:01.108',-0.490,0.385
'22:01.111',-0.490,0.410
'22:01.114',-0.485,0.415
'22:01.117',-0.495,0.425
'22:01.119',-0.510,0.445
'22:01.122',-0.520,0.445
'22:01.125',-0.540,0.440
'22:01.128',-0.565,0.455
'22:01.131',-0.575,0.450
'22:01.133',-0.590,0.465
'22:01.136',-0.635,0.470
'22:01.139',-0.640,0.485
'22:01.142',-0.655,0.500
'22:01.144',-0.660,0.510
'22:01.147',-0.675,0.520
'22:01.150',-0.690,0.520
'22:01.153',-0.695,0.535
'22:01.156',-0.700,0.535
'22:01.158',-0.710,0.525
'22:01.161',-0.740,0.525
'22:01.164',-0.760,0.525
'22:01.167',-0.780,0.540
'22:01.169',-0.770,0.555
'22:01.172',-0.775,0.560
'22:01.175',-0.770,0.570
'22:01.178',-0.770,0.585
'22:01.181',-0.765,0.595
'22:01.183',-0.760,0.575
'22:01.186',-0.755,0.585
'22:01.189',-0.755,0.580
'22:01.192',-0.745,0.560
'22:01.194',-0.750,0.560
'22:01.197',-0.755,0.540
'22:01.200',-0.735,0.535
'22:01.203',-0.715,0.535
'22:01.206',-0.685,0.525
'22:01.208',-0.650,0.530
'22:01.211',-0.620,0.525
'22:01.214',-0.585,0.520
'22:01.217',-0.560,0.495
'22:01.219',-0.545,0.475
'22:01.222',-0.525,0.450
'22:01.225',-0.495,0.415
'22:01.228',-0.480,0.380
'22:01.231',-0.465,0.370
'22:01.233',-0.450,0.345
'22:01.236',-0.415,0.335
'22:01.239',-0.385,0.320
'22:01.242',-0.360,0.310
'22:01.244',-0.330,0.290
'22:01.247',-0.295,0.275
'22:01.250',-0.280,0.250
'22:01.253',-0.270,0.235
'22:01.256',-0.270,0.215
'22:01.258',-0.270,0.195
'22:01.261',-0.270,0.165
'22:01.264',-0.260,0.145
'22:01.267',-0.255,0.155
'22:01.269',-0.230,0.155
'22:01.272',-0.210,0.165
'22:01.275',-0.185,0.165
'22:01.278',-0.165,0.170
'22:01.281',-0.130,0.170
'22:01.283',-0.105,0.175
'22:01.286',-0.080,0.175
'22:01.289',-0.045,0.160
'22:01.292',-0.015,0.145
'22:01.294',0.020,0.150
'22:01.297',0.075,0.150
'22:01.300',0.145,0.145
'22:01.303',0.225,0.145
'22:01.306',0.305,0.150
'22:01.308',0.380,0.130
'22:01.311',0.460,0.115
'22:01.314',0.540,0.105
'22:01.317',0.570,0.095
'22:01.319',0.575,0.080
'22:01.322',0.505,0.080
'22:01.325',0.360,0.070
'22:01.328',0.125,0.035
'22:01.331',-0.180,0.015
'22:01.333',-0.515,-0.025
'22:01.336',-0.855,-0.025
'22:01.339',-1.155,0.000
'22:01.342',-1.430,0.050
'22:01.344',-1.660,0.105
'22:01.347',-1.830,0.155
'22:01.350',-1.940,0.180
'22:01.353',-2.015,0.160
'22:01.356',-2.070,0.125
'22:01.358',-2.110,0.125
'22:01.361',-2.145,0.140
'22:01.364',-2.155,0.165
'22:01.367',-2.135,0.210
'22:01.369',-2.115,0.280
'22:01.372',-2.060,0.385
'22:01.375',-1.990,0.485
'22:01.378',-1.940,0.605
'22:01.381',-1.875,0.765
'22:01.383',-1.810,0.900
'22:01.386',-1.735,1.010
'22:01.389',-1.645,1.070
'22:01.392',-1.535,1.110
'22:01.394',-1.415,1.120
'22:01.397',-1.295,1.110
'22:01.400',-1.150,1.065
'22:01.403',-1.020,0.985
'22:01.406',-0.890,0.860
'22:01.408',-0.790,0.655
'22:01.411',-0.720,0.415
'22:01.414',-0.640,0.170
'22:01.417',-0.605,-0.055
'22:01.419',-0.550,-0.190
'22:01.422',-0.475,-0.255
'22:01.425',-0.380,-0.265
'22:01.428',-0.265,-0.235
'22:01.431',-0.110,-0.195
'22:01.433',0.050,-0.145
'22:01.436',0.175,-0.110
'22:01.439',0.260,-0.070
'22:01.442',0.295,-0.045
'22:01.444',0.305,-0.040
'22:01.447',0.280,-0.030
'22:01.450',0.260,-0.035
'22:01.453',0.245,-0.030
'22:01.456',0.230,-0.035
'22:01.458',0.230,-0.025
'22:01.461',0.230,-0.010
'22:01.464',0.230,-0.005
'22:01.467',0.235,0.020
'22:01.469',0.225,0.025
'22:01.472',0.230,0.030
'22:01.475',0.245,0.035
'22:01.478',0.240,0.025
'22:01.481',0.255,0.015
'22:01.483',0.260,0.005
'22:01.486',0.275,0.000
'22:01.489',0.270,0.000
'22:01.492',0.275,0.005
'22:01.494',0.305,0.005
'22:01.497',0.295,-0.005
'22:01.500',0.325,0.000
'22:01.503',0.335,-0.010
'22:01.506',0.340,-0.005
'22:01.508',0.355,0.010
'22:01.511',0.375,0.010
'22:01.514',0.380,0.010
'22:01.517',0.405,0.005
'22:01.519',0.415,-0.005
'22:01.522',0.430,-0.005
'22:01.525',0.425,-0.005
'22:01.528',0.425,-0.020
'22:01.531',0.430,-0.025
'22:01.533',0.435,-0.035
'22:01.536',0.465,-0.030
'22:01.539',0.485,-0.020
'22:01.542',0.510,-0.005
'22:01.544',0.530,0.000
'22:01.547',0.555,-0.010
'22:01.550',0.560,-0.010
'22:01.553',0.575,-0.005
'22:01.556',0.585,-0.015
'22:01.558',0.585,-0.035
'22:01.561',0.590,-0.035
'22:01.564',0.610,-0.045
'22:01.567',0.610,-0.055
'22:01.569',0.620,-0.040
'22:01.572',0.645,-0.045
'22:01.575',0.665,-0.025
'22:01.578',0.690,-0.015
'22:01.581',0.700,-0.025
'22:01.583',0.700,-0.015
'22:01.586',0.700,-0.030
'22:01.589',0.685,-0.040
'22:01.592',0.685,-0.040
'22:01.594',0.680,-0.060
'22:01.597',0.675,-0.065
'22:01.600',0.660,-0.065
'22:01.603',0.645,-0.050
'22:01.606',0.635,-0.050
'22:01.608',0.625,-0.030
'22:01.611',0.610,-0.025
'22:01.614',0.595,-0.020
'22:01.617',0.570,-0.015
'22:01.619',0.560,-0.020
'22:01.622',0.535,-0.015
'22:01.625',0.485,-0.020
'22:01.628',0.450,-0.030
'22:01.631',0.425,-0.005
'22:01.633',0.385,-0.005
'22:01.636',0.350,0.020
'22:01.639',0.305,0.025
'22:01.642',0.280,0.040
'22:01.644',0.260,0.050
'22:01.647',0.235,0.070
'22:01.650',0.210,0.080
'22:01.653',0.175,0.095
'22:01.656',0.145,0.115
'22:01.658',0.110,0.115
'22:01.661',0.075,0.120
'22:01.664',0.040,0.135
'22:01.667',-0.005,0.140
'22:01.669',-0.010,0.150
'22:01.672',-0.035,0.185
'22:01.675',-0.050,0.200
'22:01.678',-0.045,0.210
'22:01.681',-0.050,0.215
'22:01.683',-0.075,0.220
'22:01.686',-0.080,0.210
'22:01.689',-0.090,0.210
'22:01.692',-0.120,0.195
'22:01.694',-0.130,0.195
'22:01.697',-0.140,0.195
'22:01.700',-0.140,0.195
'22:01.703',-0.145,0.200
'22:01.706',-0.145,0.215
'22:01.708',-0.130,0.230
'22:01.711',-0.135,0.215
'22:01.714',-0.130,0.220
'22:01.717',-0.135,0.205
'22:01.719',-0.130,0.205
'22:01.722',-0.140,0.195
'22:01.725',-0.145,0.190
'22:01.728',-0.150,0.195
'22:01.731',-0.155,0.190
'22:01.733',-0.155,0.185
'22:01.736',-0.155,0.195
'22:01.739',-0.155,0.205
'22:01.742',-0.165,0.205
'22:01.744',-0.165,0.210
'22:01.747',-0.175,0.205
'22:01.750',-0.175,0.205
'22:01.753',-0.185,0.200
'22:01.756',-0.185,0.205
'22:01.758',-0.195,0.195
'22:01.761',-0.215,0.185
'22:01.764',-0.215,0.180
'22:01.767',-0.220,0.185
'22:01.769',-0.225,0.185
'22:01.772',-0.215,0.200
'22:01.775',-0.195,0.195
'22:01.778',-0.175,0.185
'22:01.781',-0.175,0.190
'22:01.783',-0.190,0.190
'22:01.786',-0.205,0.195
'22:01.789',-0.225,0.190
'22:01.792',-0.225,0.180
'22:01.794',-0.230,0.190
'22:01.797',-0.210,0.175
'22:01.800',-0.200,0.180
'22:01.803',-0.195,0.170
'22:01.806',-0.215,0.175
'22:01.808',-0.210,0.180
'22:01.811',-0.210,0.190
'22:01.814',-0.215,0.195
'22:01.817',-0.220,0.200
'22:01.819',-0.220,0.190
'22:01.822',-0.225,0.175
'22:01.825',-0.225,0.170
'22:01.828',-0.230,0.155
'22:01.831',-0.225,0.145
'22:01.833',-0.230,0.145
'22:01.836',-0.225,0.155
'22:01.839',-0.230,0.170
'22:01.842',-0.230,0.180
'22:01.844',-0.220,0.185
'22:01.847',-0.220,0.200
'22:01.850',-0.220,0.185
'22:01.853',-0.230,0.170
'22:01.856',-0.235,0.155
'22:01.858',-0.245,0.145
'22:01.861',-0.245,0.140
'22:01.864',-0.240,0.130
'22:01.867',-0.255,0.135
'22:01.869',-0.255,0.145
'22:01.872',-0.245,0.160
'22:01.875',-0.245,0.165
'22:01.878',-0.235,0.180
'22:01.881',-0.215,0.185
'22:01.883',-0.220,0.180
'22:01.886',-0.210,0.170
'22:01.889',-0.230,0.145
'22:01.892',-0.230,0.155
'22:01.894',-0.230,0.150
'22:01.897',-0.245,0.145
'22:01.900',-0.230,0.135
'22:01.903',-0.240,0.145
'22:01.906',-0.245,0.140
'22:01.908',-0.240,0.150
'22:01.911',-0.220,0.160
'22:01.914',-0.210,0.175
'22:01.917',-0.210,0.175
'22:01.919',-0.210,0.170
'22:01.922',-0.215,0.170
'22:01.925',-0.230,0.155
'22:01.928',-0.225,0.140
'22:01.931',-0.235,0.130
'22:01.933',-0.245,0.140
'22:01.936',-0.240,0.155
'22:01.939',-0.235,0.155
'22:01.942',-0.215,0.175
'22:01.944',-0.205,0.175
'22:01.947',-0.190,0.180
'22:01.950',-0.185,0.165
'22:01.953',-0.155,0.165
'22:01.956',-0.160,0.155
'22:01.958',-0.160,0.175
'22:01.961',-0.135,0.210
'22:01.964',-0.130,0.255
'22:01.967',-0.105,0.285
'22:01.969',-0.090,0.310
'22:01.972',-0.060,0.340
'22:01.975',-0.050,0.345
'22:01.978',-0.030,0.325
'22:01.981',-0.010,0.310
'22:01.983',-0.005,0.275
'22:01.986',0.025,0.240
'22:01.989',0.060,0.220
'22:01.992',0.075,0.195
'22:01.994',0.085,0.160
'22:01.997',0.060,0.140
'22:02.000',0.050,0.115
'22:02.003',0.020,0.105
'22:02.006',0.010,0.105
'22:02.008',0.010,0.105
'22:02.011',0.035,0.105
'22:02.014',0.035,0.100
'22:02.017',0.040,0.080
'22:02.019',0.020,0.055
'22:02.022',-0.005,0.035
'22:02.025',-0.045,0.020
'22:02.028',-0.090,0.015
'22:02.031',-0.115,0.015
'22:02.033',-0.125,0.040
'22:02.036',-0.130,0.070
'22:02.039',-0.135,0.105
'22:02.042',-0.155,0.120
'22:02.044',-0.165,0.135
'22:02.047',-0.185,0.120
'22:02.050',-0.205,0.125
'22:02.053',-0.230,0.115
'22:02.056',-0.245,0.120
'22:02.058',-0.250,0.120
'22:02.061',-0.260,0.100
'22:02.064',-0.270,0.100
'22:02.067',-0.270,0.100
'22:02.069',-0.260,0.105
'22:02.072',-0.255,0.105
'22:02.075',-0.230,0.120
'22:02.078',-0.225,0.125
'22:02.081',-0.215,0.135
'22:02.083',-0.225,0.140
'22:02.086',-0.220,0.170
'22:02.089',-0.215,0.215
'22:02.092',-0.180,0.265
'22:02.094',-0.105,0.315
'22:02.097',0.015,0.320
'22:02.100',0.200,0.290
'22:02.103',0.420,0.185
'22:02.106',0.640,0.005
'22:02.108',0.855,-0.220
'22:02.111',1.035,-0.475
'22:02.114',1.210,-0.810
'22:02.117',1.345,-1.205
'22:02.119',1.465,-1.615
'22:02.122',1.535,-1.990
'22:02.125',1.530,-2.230
'22:02.128',1.475,-2.345
'22:02.131',1.355,-2.315
'22:02.133',1.205,-2.200
'22:02.136',1.010,-2.035
'22:02.139',0.745,-1.850
'22:02.142',0.480,-1.635
'22:02.144',0.250,-1.395
'22:02.147',0.080,-1.140
'22:02.150',-0.030,-0.905
'22:02.153',-0.100,-0.695
'22:02.156',-0.130,-0.535
'22:02.158',-0.155,-0.410
'22:02.161',-0.180,-0.315
'22:02.164',-0.215,-0.235
'22:02.167',-0.260,-0.155
'22:02.169',-0.315,-0.070
'22:02.172',-0.375,0.010
'22:02.175',-0.415,0.095
'22:02.178',-0.425,0.150
'22:02.181',-0.420,0.175
'22:02.183',-0.410,0.185
'22:02.186',-0.420,0.180
'22:02.189',-0.405,0.185
'22:02.192',-0.425,0.170
'22:02.194',-0.430,0.185
'22:02.197',-0.440,0.195
'22:02.200',-0.455,0.195
'22:02.203',-0.465,0.230
'22:02.206',-0.455,0.255
'22:02.208',-0.455,0.255
'22:02.211',-0.440,0.270
'22:02.214',-0.440,0.280
'22:02.217',-0.445,0.280
'22:02.219',-0.440,0.285
'22:02.222',-0.445,0.275
'22:02.225',-0.445,0.285
'22:02.228',-0.435,0.285
'22:02.231',-0.450,0.280
'22:02.233',-0.460,0.290
'22:02.236',-0.460,0.300
'22:02.239',-0.470,0.325
'22:02.242',-0.480,0.325
'22:02.244',-0.470,0.350
'22:02.247',-0.460,0.360
'22:02.250',-0.460,0.365
'22:02.253',-0.470,0.355
'22:02.256',-0.480,0.365
'22:02.258',-0.490,0.370
'22:02.261',-0.510,0.380
'22:02.264',-0.525,0.370
'22:02.267',-0.515,0.395
'22:02.269',-0.525,0.400
'22:02.272',-0.515,0.420
'22:02.275',-0.515,0.430
'22:02.278',-0.520,0.445
'22:02.281',-0.515,0.455
'22:02.283',-0.530,0.465
'22:02.286',-0.555,0.465
'22:02.289',-0.570,0.455
'22:02.292',-0.590,0.455
'22:02.294',-0.595,0.455
'22:02.297',-0.620,0.455
'22:02.300',-0.630,0.485
'22:02.303',-0.640,0.510
'22:02.306',-0.645,0.520
'22:02.308',-0.655,0.540
'22:02.311',-0.660,0.550
'22:02.314',-0.665,0.550
'22:02.317',-0.665,0.550
'22:02.319',-0.690,0.555
'22:02.322',-0.700,0.550
'22:02.325',-0.730,0.560
'22:02.328',-0.755,0.565
'22:02.331',-0.775,0.580
'22:02.333',-0.785,0.595
'22:02.336',-0.795,0.610
'22:02.339',-0.805,0.610
'22:02.342',-0.795,0.610
'22:02.344',-0.790,0.620
'22:02.347',-0.785,0.625
'22:02.350',-0.780,0.625
'22:02.353',-0.775,0.620
'22:02.356',-0.775,0.610
'22:02.358',-0.775,0.585
'22:02.361',-0.760,0.590
'22:02.364',-0.755,0.565
'22:02.367',-0.735,0.575
'22:02.369',-0.725,0.555
'22:02.372',-0.690,0.555
'22:02.375',-0.670,0.560
'22:02.378',-0.640,0.540
'22:02.381',-0.600,0.525
'22:02.383',-0.565,0.505
'22:02.386',-0.530,0.485
'22:02.389',-0.510,0.455
'22:02.392',-0.500,0.425
'22:02.394',-0.490,0.400
'22:02.397',-0.475,0.375
'22:02.400',-0.455,0.355
'22:02.403',-0.430,0.330
'22:02.406',-0.400,0.325
'22:02.408',-0.370,0.300
'22:02.411',-0.345,0.295
'22:02.414',-0.325,0.295
'22:02.417',-0.320,0.260
'22:02.419',-0.310,0.240
'22:02.422',-0.300,0.220
'22:02.425',-0.290,0.195
'22:02.428',-0.285,0.185
'22:02.431',-0.290,0.160
'22:02.433',-0.290,0.150
'22:02.436',-0.295,0.160
'22:02.439',-0.265,0.160
'22:02.442',-0.265,0.175
'22:02.444',-0.255,0.175
'22:02.447',-0.250,0.175
'22:02.450',-0.245,0.170
'22:02.453',-0.250,0.160
'22:02.456',-0.245,0.150
'22:02.458',-0.250,0.145
'22:02.461',-0.260,0.145
'22:02.464',-0.265,0.145
'22:02.467',-0.265,0.140
'22:02.469',-0.265,0.145
'22:02.472',-0.260,0.145
'22:02.475',-0.240,0.135
'22:02.478',-0.240,0.150
'22:02.481',-0.220,0.155
'22:02.483',-0.225,0.180
'22:02.486',-0.230,0.175
'22:02.489',-0.230,0.160
'22:02.492',-0.250,0.165
'22:02.494',-0.260,0.150
'22:02.497',-0.270,0.145
'22:02.500',-0.275,0.140
'22:02.503',-0.255,0.145
'22:02.506',-0.265,0.150
'22:02.508',-0.250,0.175
'22:02.511',-0.245,0.185
'22:02.514',-0.230,0.185
'22:02.517',-0.210,0.205
'22:02.519',-0.215,0.205
'22:02.522',-0.230,0.210
'22:02.525',-0.240,0.185
'22:02.528',-0.240,0.180
'22:02.531',-0.240,0.180
'22:02.533',-0.235,0.185
'22:02.536',-0.235,0.185
'22:02.539',-0.210,0.210
'22:02.542',-0.210,0.215
'22:02.544',-0.200,0.240
'22:02.547',-0.195,0.260
'22:02.550',-0.165,0.300
'22:02.553',-0.145,0.320
'22:02.556',-0.125,0.325
'22:02.558',-0.115,0.330
'22:02.561',-0.120,0.325
'22:02.564',-0.120,0.310
'22:02.567',-0.115,0.310
'22:02.569',-0.105,0.300
'22:02.572',-0.065,0.300
'22:02.575',-0.020,0.310
'22:02.578',0.020,0.285
'22:02.581',0.065,0.260
'22:02.583',0.085,0.230
'22:02.586',0.075,0.195
'22:02.589',0.060,0.165
'22:02.592',0.030,0.125
'22:02.594',0.005,0.120
'22:02.597',0.010,0.120
'22:02.600',0.000,0.120
'22:02.603',0.015,0.110
'22:02.606',0.030,0.110
'22:02.608',0.035,0.095
'22:02.611',0.020,0.070
'22:02.614',-0.005,0.070
'22:02.617',-0.030,0.055
'22:02.619',-0.060,0.065
'22:02.622',-0.110,0.060
'22:02.625',-0.150,0.095
'22:02.628',-0.170,0.110
'22:02.631',-0.205,0.120
'22:02.633',-0.215,0.120
'22:02.636',-0.240,0.120
'22:02.639',-0.245,0.115
'22:02.642',-0.260,0.100
'22:02.644',-0.265,0.115
'22:02.647',-0.260,0.105
'22:02.650',-0.260,0.110
'22:02.653',-0.245,0.110
'22:02.656',-0.240,0.120
'22:02.658',-0.245,0.110
'22:02.661',-0.240,0.105
'22:02.664',-0.250,0.090
'22:02.667',-0.260,0.080
'22:02.669',-0.245,0.075
'22:02.672',-0.240,0.085
'22:02.675',-0.225,0.095
'22:02.678',-0.225,0.105
'22:02.681',-0.220,0.120
'22:02.683',-0.225,0.135
'22:02.686',-0.230,0.160
'22:02.689',-0.195,0.195
'22:02.692',-0.160,0.245
'22:02.694',-0.075,0.300
'22:02.697',0.065,0.325
'22:02.700',0.255,0.285
'22:02.703',0.475,0.160
'22:02.706',0.710,-0.015
'22:02.708',0.920,-0.250
'22:02.711',1.125,-0.565
'22:02.714',1.285,-0.950
'22:02.717',1.430,-1.380
'22:02.719',1.515,-1.800
'22:02.722',1.530,-2.135
'22:02.725',1.485,-2.290
'22:02.728',1.365,-2.295
'22:02.731',1.180,-2.180
'22:02.733',0.940,-1.985
'22:02.736',0.660,-1.760
'22:02.739',0.370,-1.490
'22:02.742',0.140,-1.245
'22:02.744',-0.010,-0.985
'22:02.747',-0.100,-0.755
'22:02.750',-0.145,-0.595
'22:02.753',-0.160,-0.455
'22:02.756',-0.180,-0.355
'22:02.758',-0.200,-0.265
'22:02.761',-0.240,-0.205
'22:02.764',-0.290,-0.115
'22:02.767',-0.350,-0.020
'22:02.769',-0.380,0.035
'22:02.772',-0.385,0.100
'22:02.775',-0.375,0.130
'22:02.778',-0.360,0.155
'22:02.781',-0.340,0.155
'22:02.783',-0.350,0.145
'22:02.786',-0.350,0.155
'22:02.789',-0.370,0.155
'22:02.792',-0.385,0.180
'22:02.794',-0.405,0.180
'22:02.797',-0.420,0.180
'22:02.800',-0.425,0.205
'22:02.803',-0.430,0.215
'22:02.806',-0.425,0.215
'22:02.808',-0.410,0.250
'22:02.811',-0.390,0.255
'22:02.814',-0.370,0.265
'22:02.817',-0.360,0.280
'22:02.819',-0.355,0.280
'22:02.822',-0.365,0.250
'22:02.825',-0.375,0.260
'22:02.828',-0.395,0.255
'22:02.831',-0.415,0.265
'22:02.833',-0.410,0.270
'22:02.836',-0.415,0.295
'22:02.839',-0.430,0.310
'22:02.842',-0.435,0.325
'22:02.844',-0.435,0.330
'22:02.847',-0.440,0.330
'22:02.850',-0.460,0.340
'22:02.853',-0.455,0.335
'22:02.856',-0.445,0.335
'22:02.858',-0.450,0.345
'22:02.861',-0.445,0.355
'22:02.864',-0.450,0.365
'22:02.867',-0.445,0.380
'22:02.869',-0.450,0.400
'22:02.872',-0.460,0.415
'22:02.875',-0.455,0.430
'22:02.878',-0.460,0.440
'22:02.881',-0.470,0.445
'22:02.883',-0.485,0.445
'22:02.886',-0.505,0.465
'22:02.889',-0.515,0.465
'22:02.892',-0.520,0.485
'22:02.894',-0.535,0.490
'22:02.897',-0.550,0.505
'22:02.900',-0.560,0.525
'22:02.903',-0.575,0.530
'22:02.906',-0.575,0.545
'22:02.908',-0.570,0.555
'22:02.911',-0.575,0.565
'22:02.914',-0.570,0.580
'22:02.917',-0.590,0.590
'22:02.919',-0.600,0.590
'22:02.922',-0.605,0.590
'22:02.925',-0.615,0.585
'22:02.928',-0.625,0.585
'22:02.931',-0.625,0.590
'22:02.933',-0.620,0.590
'22:02.936',-0.615,0.610
'22:02.939',-0.610,0.625
'22:02.942',-0.580,0.645
'22:02.944',-0.570,0.650
'22:02.947',-0.565,0.645
'22:02.950',-0.570,0.645
'22:02.953',-0.555,0.620
'22:02.956',-0.545,0.595
'22:02.958',-0.545,0.580
'22:02.961',-0.525,0.550
'22:02.964',-0.510,0.530
'22:02.967',-0.495,0.525
'22:02.969',-0.485,0.495
'22:02.972',-0.445,0.480
'22:02.975',-0.415,0.475
'22:02.978',-0.385,0.440
'22:02.981',-0.360,0.435
'22:02.983',-0.350,0.400
'22:02.986',-0.340,0.360
'22:02.989',-0.325,0.335
'22:02.992',-0.310,0.315
'22:02.994',-0.295,0.280
'22:02.997',-0.285,0.250
'22:03.000',-0.270,0.240
'22:03.003',-0.260,0.225
'22:03.006',-0.245,0.215
'22:03.008',-0.240,0.205
'22:03.011',-0.225,0.205
'22:03.014',-0.215,0.195
'22:03.017',-0.205,0.195
'22:03.019',-0.220,0.175
'22:03.022',-0.210,0.165
'22:03.025',-0.225,0.145
'22:03.028',-0.240,0.135
'22:03.031',-0.240,0.145
'22:03.033',-0.265,0.130
'22:03.036',-0.260,0.125
'22:03.039',-0.265,0.140
'22:03.042',-0.240,0.150
'22:03.044',-0.230,0.160
'22:03.047',-0.230,0.155
'22:03.050',-0.205,0.135
'22:03.053',-0.210,0.145
'22:03.056',-0.215,0.150
'22:03.058',-0.235,0.145
'22:03.061',-0.245,0.135
'22:03.064',-0.230,0.130
'22:03.067',-0.230,0.115
'22:03.069',-0.220,0.105
'22:03.072',-0.215,0.115
'22:03.075',-0.215,0.115
'22:03.078',-0.215,0.135
'22:03.081',-0.215,0.150
'22:03.083',-0.235,0.150
'22:03.086',-0.240,0.150
'22:03.089',-0.235,0.130
'22:03.092',-0.240,0.120
'22:03.094',-0.240,0.110
'22:03.097',-0.235,0.125
'22:03.100',-0.240,0.120
'22:03.103',-0.235,0.130
'22:03.106',-0.230,0.140
'22:03.108',-0.230,0.140
'22:03.111',-0.215,0.155
'22:03.114',-0.205,0.155
'22:03.117',-0.205,0.140
'22:03.119',-0.190,0.145
'22:03.122',-0.190,0.150
'22:03.125',-0.190,0.155
'22:03.128',-0.180,0.165
'22:03.131',-0.190,0.185
'22:03.133',-0.170,0.205
'22:03.136',-0.170,0.240
'22:03.139',-0.140,0.260
'22:03.142',-0.110,0.275
'22:03.144',-0.100,0.290
'22:03.147',-0.075,0.290
'22:03.150',-0.070,0.280
'22:03.153',-0.045,0.280
'22:03.156',-0.015,0.265
'22:03.158',0.015,0.240
'22:03.161',0.040,0.215
'22:03.164',0.065,0.190
'22:03.167',0.065,0.155
'22:03.169',0.065,0.120
'22:03.172',0.050,0.110
'22:03.175',0.030,0.110
'22:03.178',0.020,0.105
'22:03.181',0.025,0.110
'22:03.183',0.045,0.105
'22:03.186',0.050,0.115
'22:03.189',0.055,0.105
'22:03.192',0.035,0.080
'22:03.194',0.030,0.065
'22:03.197',0.000,0.030
'22:03.200',-0.030,0.015
'22:03.203',-0.065,0.010
'22:03.206',-0.100,0.020
'22:03.208',-0.115,0.035
'22:03.211',-0.135,0.070
'22:03.214',-0.130,0.100
'22:03.217',-0.150,0.105
'22:03.219',-0.155,0.100
'22:03.222',-0.170,0.095
'22:03.225',-0.200,0.075
'22:03.228',-0.220,0.075
'22:03.231',-0.235,0.060
'22:03.233',-0.255,0.080
'22:03.236',-0.260,0.075
'22:03.239',-0.270,0.085
'22:03.242',-0.265,0.080
'22:03.244',-0.260,0.095
'22:03.247',-0.250,0.090
'22:03.250',-0.250,0.080
'22:03.253',-0.240,0.070
'22:03.256',-0.240,0.075
'22:03.258',-0.230,0.055
'22:03.261',-0.230,0.055
'22:03.264',-0.235,0.060
'22:03.267',-0.245,0.075
'22:03.269',-0.250,0.090
'22:03.272',-0.245,0.135
'22:03.275',-0.215,0.180
'22:03.278',-0.175,0.240
'22:03.281',-0.085,0.280
'22:03.283',0.055,0.290
'22:03.286',0.225,0.270
'22:03.289',0.430,0.195
'22:03.292',0.620,0.040
'22:03.294',0.810,-0.140
'22:03.297',0.975,-0.380
'22:03.300',1.140,-0.685
'22:03.303',1.295,-1.055
'22:03.306',1.440,-1.445
'22:03.308',1.530,-1.785
'22:03.311',1.575,-2.060
'22:03.314',1.550,-2.185
'22:03.317',1.470,-2.200
'22:03.319',1.340,-2.120
'22:03.322',1.155,-1.980
'22:03.325',0.920,-1.825
'22:03.328',0.645,-1.625
'22:03.331',0.365,-1.425
'22:03.333',0.145,-1.205
'22:03.336',0.005,-0.975
'22:03.339',-0.075,-0.785
'22:03.342',-0.125,-0.620
'22:03.344',-0.145,-0.490
'22:03.347',-0.140,-0.385
'22:03.350',-0.155,-0.315
'22:03.353',-0.185,-0.215
'22:03.356',-0.235,-0.150
'22:03.358',-0.280,-0.100
'22:03.361',-0.330,-0.045
'22:03.364',-0.375,0.015
'22:03.367',-0.395,0.070
'22:03.369',-0.385,0.100
'22:03.372',-0.370,0.130
'22:03.375',-0.350,0.145
'22:03.378',-0.340,0.165
'22:03.381',-0.330,0.175
'22:03.383',-0.345,0.180
'22:03.386',-0.350,0.195
'22:03.389',-0.365,0.195
'22:03.392',-0.380,0.195
'22:03.394',-0.385,0.185
'22:03.397',-0.405,0.195
'22:03.400',-0.415,0.205
'22:03.403',-0.420,0.220
'22:03.406',-0.410,0.235
'22:03.408',-0.400,0.250
'22:03.411',-0.390,0.260
'22:03.414',-0.380,0.260
'22:03.417',-0.385,0.255
'22:03.419',-0.390,0.270
'22:03.422',-0.400,0.260
'22:03.425',-0.405,0.250
'22:03.428',-0.415,0.255
'22:03.431',-0.425,0.265
'22:03.433',-0.435,0.290
'22:03.436',-0.440,0.290
'22:03.439',-0.430,0.300
'22:03.442',-0.420,0.320
'22:03.444',-0.420,0.315
'22:03.447',-0.410,0.340
'22:03.450',-0.410,0.345
'22:03.453',-0.395,0.355
'22:03.456',-0.385,0.355
'22:03.458',-0.405,0.350
'22:03.461',-0.420,0.365
'22:03.464',-0.430,0.370
'22:03.467',-0.445,0.365
'22:03.469',-0.455,0.385
'22:03.472',-0.465,0.425
'22:03.475',-0.465,0.430
'22:03.478',-0.465,0.455
'22:03.481',-0.460,0.470
'22:03.483',-0.485,0.470
'22:03.486',-0.495,0.480
'22:03.489',-0.500,0.470
'22:03.492',-0.530,0.470
'22:03.494',-0.550,0.485
'22:03.497',-0.565,0.495
'22:03.500',-0.590,0.510
'22:03.503',-0.595,0.535
'22:03.506',-0.590,0.555
'22:03.508',-0.585,0.560
'22:03.511',-0.590,0.575
'22:03.514',-0.590,0.580
'22:03.517',-0.600,0.590
'22:03.519',-0.620,0.595
'22:03.522',-0.625,0.590
'22:03.525',-0.640,0.590
'22:03.528',-0.655,0.590
'22:03.531',-0.655,0.600
'22:03.533',-0.655,0.590
'22:03.536',-0.625,0.590
'22:03.539',-0.620,0.580
'22:03.542',-0.595,0.585
'22:03.544',-0.570,0.575
'22:03.547',-0.545,0.560
'22:03.550',-0.520,0.545
'22:03.553',-0.510,0.540
'22:03.556',-0.490,0.520
'22:03.558',-0.475,0.490
'22:03.561',-0.460,0.455
'22:03.564',-0.425,0.430
'22:03.567',-0.405,0.405
'22:03.569',-0.370,0.380
'22:03.572',-0.350,0.350
'22:03.575',-0.320,0.335
'22:03.578',-0.300,0.315
'22:03.581',-0.255,0.295
'22:03.583',-0.240,0.265
'22:03.586',-0.240,0.240
'22:03.589',-0.235,0.220
'22:03.592',-0.235,0.185
'22:03.594',-0.250,0.170
'22:03.597',-0.255,0.160
'22:03.600',-0.240,0.155
'22:03.603',-0.245,0.150
'22:03.606',-0.240,0.155
'22:03.608',-0.230,0.150
'22:03.611',-0.220,0.145
'22:03.614',-0.200,0.145
'22:03.617',-0.205,0.145
'22:03.619',-0.195,0.130
'22:03.622',-0.190,0.135
'22:03.625',-0.200,0.135
'22:03.628',-0.195,0.120
'22:03.631',-0.205,0.120
'22:03.633',-0.210,0.105
'22:03.636',-0.200,0.100
'22:03.639',-0.210,0.120
'22:03.642',-0.210,0.130
'22:03.644',-0.210,0.125
'22:03.647',-0.205,0.120
'22:03.650',-0.215,0.125
'22:03.653',-0.200,0.135
'22:03.656',-0.205,0.115
'22:03.658',-0.200,0.125
'22:03.661',-0.200,0.125
'22:03.664',-0.200,0.125
'22:03.667',-0.210,0.130
'22:03.669',-0.200,0.105
'22:03.672',-0.205,0.120
'22:03.675',-0.195,0.115
'22:03.678',-0.200,0.130
'22:03.681',-0.195,0.140
'22:03.683',-0.200,0.150
'22:03.686',-0.195,0.130
'22:03.689',-0.185,0.130
'22:03.692',-0.185,0.115
'22:03.694',-0.175,0.115
'22:03.697',-0.170,0.125
'22:03.700',-0.165,0.120
'22:03.703',-0.145,0.130
'22:03.706',-0.125,0.145
'22:03.708',-0.105,0.175
'22:03.711',-0.055,0.205
'22:03.714',-0.025,0.230
'22:03.717',-0.010,0.255
'22:03.719',-0.005,0.270
'22:03.722',0.010,0.280
'22:03.725',0.010,0.290
'22:03.728',0.015,0.300
'22:03.731',0.055,0.310
'22:03.733',0.095,0.330
'22:03.736',0.155,0.340
'22:03.739',0.230,0.345
'22:03.742',0.310,0.340
'22:03.744',0.385,0.335
'22:03.747',0.460,0.305
'22:03.750',0.515,0.280
'22:03.753',0.560,0.260
'22:03.756',0.620,0.235
'22:03.758',0.665,0.215
'22:03.761',0.730,0.195
'22:03.764',0.790,0.175
'22:03.767',0.870,0.155
'22:03.769',0.955,0.135
'22:03.772',1.035,0.105
'22:03.775',1.090,0.075
'22:03.778',1.150,0.025
'22:03.781',1.210,-0.010
'22:03.783',1.240,-0.070
'22:03.786',1.265,-0.115
'22:03.789',1.270,-0.175
'22:03.792',1.230,-0.230
'22:03.794',1.145,-0.310
'22:03.797',0.990,-0.385
'22:03.800',0.765,-0.425
'22:03.803',0.445,-0.450
'22:03.806',0.060,-0.485
'22:03.808',-0.330,-0.510
'22:03.811',-0.670,-0.535
'22:03.814',-0.945,-0.570
'22:03.817',-1.145,-0.625
'22:03.819',-1.255,-0.670
'22:03.822',-1.295,-0.740
'22:03.825',-1.280,-0.850
'22:03.828',-1.220,-0.930
'22:03.831',-1.140,-1.000
'22:03.833',-1.090,-1.035
'22:03.836',-1.045,-1.015
'22:03.839',-1.005,-0.930
'22:03.842',-0.980,-0.810
'22:03.844',-0.920,-0.655
'22:03.847',-0.855,-0.515
'22:03.850',-0.750,-0.415
'22:03.853',-0.645,-0.320
'22:03.856',-0.540,-0.270
'22:03.858',-0.450,-0.200
'22:03.861',-0.415,-0.145
'22:03.864',-0.380,-0.100
'22:03.867',-0.385,-0.065
'22:03.869',-0.365,-0.045
'22:03.872',-0.380,-0.030
'22:03.875',-0.380,-0.010
'22:03.878',-0.375,0.005
'22:03.881',-0.370,0.020
'22:03.883',-0.365,0.010
'22:03.886',-0.370,0.010
'22:03.889',-0.380,-0.010
'22:03.892',-0.375,0.000
'22:03.894',-0.370,-0.015
'22:03.897',-0.365,0.005
'22:03.900',-0.360,0.015
'22:03.903',-0.355,0.025
'22:03.906',-0.350,0.030
'22:03.908',-0.355,0.035
'22:03.911',-0.350,0.050
'22:03.914',-0.340,0.045
'22:03.917',-0.355,0.045
'22:03.919',-0.340,0.035
'22:03.922',-0.345,0.025
'22:03.925',-0.350,0.035
'22:03.928',-0.350,0.030
'22:03.931',-0.350,0.015
'22:03.933',-0.360,0.015
'22:03.936',-0.365,0.035
'22:03.939',-0.375,0.050
'22:03.942',-0.370,0.060
'22:03.944',-0.355,0.065
'22:03.947',-0.340,0.075
'22:03.950',-0.335,0.065
'22:03.953',-0.340,0.075
'22:03.956',-0.345,0.085
'22:03.958',-0.335,0.070
'22:03.961',-0.350,0.065
'22:03.964',-0.350,0.070
'22:03.967',-0.355,0.075
'22:03.969',-0.365,0.090
'22:03.972',-0.365,0.120
'22:03.975',-0.350,0.140
'22:03.978',-0.340,0.135
'22:03.981',-0.325,0.160
'22:03.983',-0.330,0.145
'22:03.986',-0.330,0.160
'22:03.989',-0.330,0.155
'22:03.992',-0.320,0.155
'22:03.994',-0.300,0.160
'22:03.997',-0.300,0.160
'22:04.000',-0.290,0.170
'22:04.003',-0.280,0.210
'22:04.006',-0.285,0.235
'22:04.008',-0.270,0.240
'22:04.011',-0.250,0.255
'22:04.014',-0.220,0.265
'22:04.017',-0.220,0.270
'22:04.019',-0.200,0.275
'22:04.022',-0.200,0.285
'22:04.025',-0.190,0.290
'22:04.028',-0.175,0.305
'22:04.031',-0.170,0.310
'22:04.033',-0.155,0.325
'22:04.036',-0.145,0.335
'22:04.039',-0.135,0.345
'22:04.042',-0.115,0.360
'22:04.044',-0.115,0.355
'22:04.047',-0.095,0.355
'22:04.050',-0.095,0.355
'22:04.053',-0.090,0.345
'22:04.056',-0.090,0.345
'22:04.058',-0.090,0.335
'22:04.061',-0.090,0.340
'22:04.064',-0.080,0.340
'22:04.067',-0.085,0.350
'22:04.069',-0.085,0.340
'22:04.072',-0.100,0.345
'22:04.075',-0.105,0.335
'22:04.078',-0.125,0.320
'22:04.081',-0.130,0.315
'22:04.083',-0.140,0.305
'22:04.086',-0.165,0.295
'22:04.089',-0.160,0.280
'22:04.092',-0.190,0.270
'22:04.094',-0.200,0.250
'22:04.097',-0.190,0.225
'22:04.100',-0.205,0.200
'22:04.103',-0.190,0.200
'22:04.106',-0.190,0.195
'22:04.108',-0.185,0.195
'22:04.111',-0.185,0.200
'22:04.114',-0.185,0.185
'22:04.117',-0.210,0.170
'22:04.119',-0.220,0.155
'22:04.122',-0.240,0.150
'22:04.125',-0.255,0.145
'22:04.128',-0.255,0.115
'22:04.131',-0.250,0.110
'22:04.133',-0.245,0.120
'22:04.136',-0.240,0.110
'22:04.139',-0.240,0.120
'22:04.142',-0.235,0.110
'22:04.144',-0.250,0.125
'22:04.147',-0.230,0.135
'22:04.150',-0.220,0.125
'22:04.153',-0.220,0.125
'22:04.156',-0.230,0.125
'22:04.158',-0.235,0.115
'22:04.161',-0.255,0.100
'22:04.164',-0.265,0.090
'22:04.167',-0.265,0.090
'22:04.169',-0.245,0.100
'22:04.172',-0.225,0.120
'22:04.175',-0.215,0.120
'22:04.178',-0.205,0.135
'22:04.181',-0.195,0.135
'22:04.183',-0.200,0.125
'22:04.186',-0.210,0.115
'22:04.189',-0.215,0.105
'22:04.192',-0.220,0.110
'22:04.194',-0.235,0.090
'22:04.197',-0.235,0.110
'22:04.200',-0.245,0.100
'22:04.203',-0.245,0.115
'22:04.206',-0.230,0.115
'22:04.208',-0.215,0.135
'22:04.211',-0.215,0.125
'22:04.214',-0.185,0.125
'22:04.217',-0.175,0.100
'22:04.219',-0.175,0.100
'22:04.222',-0.185,0.095
'22:04.225',-0.200,0.090
'22:04.228',-0.210,0.095
'22:04.231',-0.220,0.095
'22:04.233',-0.225,0.105
'22:04.236',-0.235,0.100
'22:04.239',-0.240,0.095
'22:04.242',-0.225,0.105
'22:04.244',-0.215,0.100
'22:04.247',-0.205,0.110
'22:04.250',-0.200,0.110
'22:04.253',-0.180,0.120
'22:04.256',-0.180,0.115
'22:04.258',-0.195,0.105
'22:04.261',-0.195,0.100
'22:04.264',-0.200,0.080
'22:04.267',-0.215,0.080
'22:04.269',-0.210,0.075
'22:04.272',-0.210,0.080
'22:04.275',-0.210,0.085
'22:04.278',-0.190,0.090
'22:04.281',-0.190,0.100
'22:04.283',-0.180,0.095
'22:04.286',-0.175,0.100
'22:04.289',-0.175,0.095
'22:04.292',-0.180,0.075
'22:04.294',-0.170,0.075
'22:04.297',-0.150,0.075
'22:04.300',-0.135,0.090
'22:04.303',-0.120,0.115
'22:04.306',-0.105,0.180
'22:04.308',-0.080,0.230
'22:04.311',-0.065,0.260
'22:04.314',-0.035,0.270
'22:04.317',-0.045,0.275
'22:04.319',-0.040,0.265
'22:04.322',-0.035,0.250
'22:04.325',-0.025,0.220
'22:04.328',-0.005,0.185
'22:04.331',0.025,0.160
'22:04.333',0.070,0.145
'22:04.336',0.095,0.135
'22:04.339',0.105,0.135
'22:04.342',0.100,0.110
'22:04.344',0.095,0.095
'22:04.347',0.070,0.075
'22:04.350',0.050,0.065
'22:04.353',0.050,0.060
'22:04.356',0.055,0.050
'22:04.358',0.050,0.040
'22:04.361',0.055,0.025
'22:04.364',0.040,0.010
'22:04.367',0.020,-0.020
'22:04.369',0.005,-0.035
'22:04.372',-0.030,-0.040
'22:04.375',-0.060,-0.030
'22:04.378',-0.070,0.000
'22:04.381',-0.090,0.045
'22:04.383',-0.125,0.060
'22:04.386',-0.140,0.085
'22:04.389',-0.155,0.070
'22:04.392',-0.170,0.050
'22:04.394',-0.190,0.040
'22:04.397',-0.215,0.025
'22:04.400',-0.240,0.035
'22:04.403',-0.250,0.040
'22:04.406',-0.255,0.045
'22:04.408',-0.245,0.060
'22:04.411',-0.235,0.065
'22:04.414',-0.235,0.070
'22:04.417',-0.220,0.055
'22:04.419',-0.200,0.050
'22:04.422',-0.195,0.035
'22:04.425',-0.205,0.035
'22:04.428',-0.210,0.030
'22:04.431',-0.220,0.035
'22:04.433',-0.225,0.050
'22:04.436',-0.225,0.055
'22:04.439',-0.225,0.090
'22:04.442',-0.215,0.130
'22:04.444',-0.175,0.205
'22:04.447',-0.120,0.255
'22:04.450',-0.025,0.290
'22:04.453',0.115,0.290
'22:04.456',0.305,0.210
'22:04.458',0.490,0.075
'22:04.461',0.690,-0.115
'22:04.464',0.865,-0.335
'22:04.467',1.035,-0.615
'22:04.469',1.195,-0.975
'22:04.472',1.355,-1.370
'22:04.475',1.465,-1.775
'22:04.478',1.535,-2.105
'22:04.481',1.530,-2.310
'22:04.483',1.470,-2.355
'22:04.486',1.350,-2.300
'22:04.489',1.190,-2.165
'22:04.492',0.980,-1.990
'22:04.494',0.715,-1.800
'22:04.497',0.460,-1.585
'22:04.500',0.245,-1.365
'22:04.503',0.095,-1.135
'22:04.506',0.000,-0.920
'22:04.508',-0.050,-0.730
'22:04.511',-0.080,-0.590
'22:04.514',-0.095,-0.470
'22:04.517',-0.130,-0.380
'22:04.519',-0.155,-0.295
'22:04.522',-0.210,-0.220
'22:04.525',-0.265,-0.155
'22:04.528',-0.315,-0.085
'22:04.531',-0.345,-0.020
'22:04.533',-0.375,0.030
'22:04.536',-0.370,0.065
'22:04.539',-0.355,0.105
'22:04.542',-0.340,0.130
'22:04.544',-0.360,0.125
'22:04.547',-0.340,0.135
'22:04.550',-0.350,0.145
'22:04.553',-0.355,0.150
'22:04.556',-0.370,0.160
'22:04.558',-0.385,0.165
'22:04.561',-0.400,0.165
'22:04.564',-0.405,0.165
'22:04.567',-0.410,0.160
'22:04.569',-0.400,0.190
'22:04.572',-0.400,0.200
'22:04.575',-0.390,0.210
'22:04.578',-0.385,0.235
'22:04.581',-0.385,0.245
'22:04.583',-0.390,0.255
'22:04.586',-0.395,0.260
'22:04.589',-0.380,0.250
'22:04.592',-0.390,0.255
'22:04.594',-0.385,0.255
'22:04.597',-0.400,0.245
'22:04.600',-0.405,0.255
'22:04.603',-0.415,0.265
'22:04.606',-0.405,0.275
'22:04.608',-0.410,0.295
'22:04.611',-0.395,0.320
'22:04.614',-0.395,0.340
'22:04.617',-0.400,0.325
'22:04.619',-0.415,0.340
'22:04.622',-0.420,0.330
'22:04.625',-0.430,0.335
'22:04.628',-0.435,0.340
'22:04.631',-0.430,0.355
'22:04.633',-0.440,0.375
'22:04.636',-0.440,0.385
'22:04.639',-0.445,0.390
'22:04.642',-0.450,0.405
'22:04.644',-0.455,0.415
'22:04.647',-0.455,0.430
'22:04.650',-0.460,0.430
'22:04.653',-0.475,0.445
'22:04.656',-0.475,0.455
'22:04.658',-0.490,0.455
'22:04.661',-0.505,0.465
'22:04.664',-0.530,0.465
'22:04.667',-0.545,0.475
'22:04.669',-0.545,0.505
'22:04.672',-0.565,0.510
'22:04.675',-0.570,0.525
'22:04.678',-0.585,0.545
'22:04.681',-0.575,0.555
'22:04.683',-0.600,0.565
'22:04.686',-0.610,0.560
'22:04.689',-0.625,0.560
'22:04.692',-0.645,0.560
'22:04.694',-0.650,0.555
'22:04.697',-0.650,0.570
'22:04.700',-0.645,0.575
'22:04.703',-0.650,0.570
'22:04.706',-0.650,0.570
'22:04.708',-0.645,0.590
'22:04.711',-0.630,0.585
'22:04.714',-0.620,0.585
'22:04.717',-0.625,0.600
'22:04.719',-0.590,0.585
'22:04.722',-0.605,0.560
'22:04.725',-0.585,0.545
'22:04.728',-0.590,0.520
'22:04.731',-0.565,0.515
'22:04.733',-0.540,0.500
'22:04.736',-0.505,0.500
'22:04.739',-0.495,0.490
'22:04.742',-0.465,0.455
'22:04.744',-0.435,0.450
'22:04.747',-0.410,0.425
'22:04.750',-0.380,0.390
'22:04.753',-0.370,0.365
'22:04.756',-0.355,0.335
'22:04.758',-0.360,0.300
'22:04.761',-0.345,0.265
'22:04.764',-0.320,0.235
'22:04.767',-0.300,0.225
'22:04.769',-0.270,0.190
'22:04.772',-0.245,0.170
'22:04.775',-0.220,0.170
'22:04.778',-0.210,0.145
'22:04.781',-0.195,0.140
'22:04.783',-0.195,0.135
'22:04.786',-0.170,0.140
'22:04.789',-0.180,0.125
'22:04.792',-0.190,0.115
'22:04.794',-0.185,0.105
'22:04.797',-0.195,0.090
'22:04.800',-0.200,0.080
'22:04.803',-0.195,0.065
'22:04.806',-0.195,0.090
'22:04.808',-0.180,0.090
'22:04.811',-0.185,0.105
'22:04.814',-0.185,0.080
'22:04.817',-0.185,0.095
'22:04.819',-0.200,0.080
'22:04.822',-0.195,0.055
'22:04.825',-0.175,0.065
'22:04.828',-0.190,0.055
'22:04.831',-0.190,0.055
'22:04.833',-0.190,0.060
'22:04.836',-0.190,0.070
'22:04.839',-0.195,0.065
'22:04.842',-0.205,0.070
'22:04.844',-0.195,0.070
'22:04.847',-0.205,0.065
'22:04.850',-0.210,0.090
'22:04.853',-0.220,0.085
'22:04.856',-0.195,0.085
'22:04.858',-0.190,0.080
'22:04.861',-0.195,0.070
'22:04.864',-0.190,0.045
'22:04.867',-0.195,0.050
'22:04.869',-0.195,0.065
'22:04.872',-0.190,0.075
'22:04.875',-0.185,0.085
'22:04.878',-0.180,0.100
'22:04.881',-0.170,0.110
'22:04.883',-0.170,0.095
'22:04.886',-0.175,0.105
'22:04.889',-0.180,0.100
'22:04.892',-0.180,0.105
'22:04.894',-0.175,0.100
'22:04.897',-0.155,0.100
'22:04.900',-0.150,0.135
'22:04.903',-0.135,0.140
'22:04.906',-0.105,0.175
'22:04.908',-0.080,0.210
'22:04.911',-0.070,0.245
'22:04.914',-0.050,0.265
'22:04.917',-0.035,0.255
'22:04.919',-0.040,0.255
'22:04.922',-0.030,0.235
'22:04.925',-0.040,0.240
'22:04.928',-0.015,0.220
'22:04.931',0.000,0.210
'22:04.933',0.035,0.205
'22:04.936',0.070,0.195
'22:04.939',0.105,0.175
'22:04.942',0.115,0.140
'22:04.944',0.130,0.105
'22:04.947',0.130,0.085
'22:04.950',0.115,0.055
'22:04.953',0.075,0.050
'22:04.956',0.060,0.035
'22:04.958',0.050,0.040
'22:04.961',0.055,0.035
'22:04.964',0.070,0.035
'22:04.967',0.080,0.025
'22:04.969',0.080,0.015
'22:04.972',0.070,-0.005
'22:04.975',0.050,-0.010
'22:04.978',0.020,-0.020
'22:04.981',-0.015,-0.010
'22:04.983',-0.060,-0.005
'22:04.986',-0.085,0.000
'22:04.989',-0.110,0.015
'22:04.992',-0.125,0.035
'22:04.994',-0.135,0.040
'22:04.997',-0.160,0.040
'22:05.000',-0.165,0.045
'22:05.003',-0.175,0.045
'22:05.006',-0.185,0.035
'22:05.008',-0.205,0.045
'22:05.011',-0.220,0.055
'22:05.014',-0.235,0.060
'22:05.017',-0.225,0.040
'22:05.019',-0.230,0.040
'22:05.022',-0.210,0.035
'22:05.025',-0.215,0.020
'22:05.028',-0.205,0.015
'22:05.031',-0.210,0.005
'22:05.033',-0.205,0.010
'22:05.036',-0.200,0.005
'22:05.039',-0.200,0.020
'22:05.042',-0.200,0.035
'22:05.044',-0.195,0.045
'22:05.047',-0.185,0.080
'22:05.050',-0.165,0.130
'22:05.053',-0.135,0.185
'22:05.056',-0.075,0.240
'22:05.058',0.015,0.280
'22:05.061',0.155,0.255
'22:05.064',0.325,0.200
'22:05.067',0.515,0.070
'22:05.069',0.710,-0.105
'22:05.072',0.875,-0.305
'22:05.075',1.065,-0.565
'22:05.078',1.210,-0.880
'22:05.081',1.360,-1.285
'22:05.083',1.470,-1.695
'22:05.086',1.550,-2.080
'22:05.089',1.550,-2.345
'22:05.092',1.490,-2.455
'22:05.094',1.390,-2.435
'22:05.097',1.240,-2.300
'22:05.100',1.040,-2.145
'22:05.103',0.795,-1.955
'22:05.106',0.530,-1.735
'22:05.108',0.315,-1.530
'22:05.111',0.140,-1.280
'22:05.114',0.030,-1.055
'22:05.117',-0.045,-0.840
'22:05.119',-0.085,-0.660
'22:05.122',-0.110,-0.535
'22:05.125',-0.135,-0.440
'22:05.128',-0.160,-0.370
'22:05.131',-0.195,-0.300
'22:05.133',-0.250,-0.225
'22:05.136',-0.295,-0.140
'22:05.139',-0.335,-0.060
'22:05.142',-0.335,0.020
'22:05.144',-0.340,0.050
'22:05.147',-0.330,0.085
'22:05.150',-0.330,0.095
'22:05.153',-0.335,0.095
'22:05.156',-0.330,0.090
'22:05.158',-0.345,0.110
'22:05.161',-0.360,0.110
'22:05.164',-0.360,0.125
'22:05.167',-0.380,0.130
'22:05.169',-0.370,0.135
'22:05.172',-0.390,0.155
'22:05.175',-0.385,0.160
'22:05.178',-0.390,0.165
'22:05.181',-0.370,0.195
'22:05.183',-0.370,0.200
'22:05.186',-0.365,0.215
'22:05.189',-0.360,0.220
'22:05.192',-0.355,0.220
'22:05.194',-0.375,0.210
'22:05.197',-0.400,0.210
'22:05.200',-0.405,0.220
'22:05.203',-0.405,0.215
'22:05.206',-0.415,0.230
'22:05.208',-0.405,0.250
'22:05.211',-0.400,0.260
'22:05.214',-0.395,0.275
'22:05.217',-0.385,0.290
'22:05.219',-0.405,0.315
'22:05.222',-0.400,0.305
'22:05.225',-0.405,0.315
'22:05.228',-0.410,0.320
'22:05.231',-0.415,0.310
'22:05.233',-0.415,0.315
'22:05.236',-0.420,0.345
'22:05.239',-0.420,0.365
'22:05.242',-0.430,0.390
'22:05.244',-0.435,0.395
'22:05.247',-0.445,0.410
'22:05.250',-0.455,0.420
'22:05.253',-0.455,0.430
'22:05.256',-0.480,0.435
'22:05.258',-0.475,0.450
'22:05.261',-0.485,0.460
'22:05.264',-0.510,0.465
'22:05.267',-0.525,0.475
'22:05.269',-0.535,0.485
'22:05.272',-0.565,0.505
'22:05.275',-0.580,0.525
'22:05.278',-0.580,0.545
'22:05.281',-0.590,0.565
'22:05.283',-0.590,0.575
'22:05.286',-0.590,0.585
'22:05.289',-0.580,0.580
'22:05.292',-0.580,0.580
'22:05.294',-0.585,0.575
'22:05.297',-0.600,0.575
'22:05.300',-0.590,0.585
'22:05.303',-0.575,0.585
'22:05.306',-0.580,0.580
'22:05.308',-0.560,0.585
'22:05.311',-0.555,0.580
'22:05.314',-0.525,0.565
'22:05.317',-0.505,0.545
'22:05.319',-0.490,0.540
'22:05.322',-0.465,0.510
'22:05.325',-0.450,0.495
'22:05.328',-0.430,0.465
'22:05.331',-0.410,0.440
'22:05.333',-0.390,0.405
'22:05.336',-0.370,0.395
'22:05.339',-0.355,0.360
'22:05.342',-0.325,0.340
'22:05.344',-0.320,0.320
'22:05.347',-0.285,0.300
'22:05.350',-0.265,0.270
'22:05.353',-0.255,0.245
'22:05.356',-0.240,0.210
'22:05.358',-0.230,0.190
'22:05.361',-0.225,0.170
'22:05.364',-0.225,0.145
'22:05.367',-0.215,0.140
'22:05.369',-0.230,0.130
'22:05.372',-0.225,0.115
'22:05.375',-0.205,0.105
'22:05.378',-0.195,0.095
'22:05.381',-0.195,0.105
'22:05.383',-0.190,0.095
'22:05.386',-0.195,0.100
'22:05.389',-0.190,0.110
'22:05.392',-0.200,0.100
'22:05.394',-0.210,0.090
'22:05.397',-0.210,0.085
'22:05.400',-0.215,0.075
'22:05.403',-0.195,0.065
'22:05.406',-0.200,0.070
'22:05.408',-0.185,0.070
'22:05.411',-0.190,0.090
'22:05.414',-0.195,0.085
'22:05.417',-0.200,0.085
'22:05.419',-0.205,0.080
'22:05.422',-0.205,0.070
'22:05.425',-0.200,0.055
'22:05.428',-0.200,0.050
'22:05.431',-0.200,0.040
'22:05.433',-0.195,0.050
'22:05.436',-0.210,0.055
'22:05.439',-0.215,0.070
'22:05.442',-0.205,0.075
'22:05.444',-0.205,0.090
'22:05.447',-0.205,0.080
'22:05.450',-0.195,0.085
'22:05.453',-0.190,0.090
'22:05.456',-0.185,0.085
'22:05.458',-0.190,0.070
'22:05.461',-0.190,0.065
'22:05.464',-0.195,0.050
'22:05.467',-0.205,0.055
'22:05.469',-0.200,0.055
'22:05.472',-0.190,0.075
'22:05.475',-0.170,0.075
'22:05.478',-0.175,0.095
'22:05.481',-0.150,0.100
'22:05.483',-0.145,0.110
'22:05.486',-0.135,0.130
'22:05.489',-0.130,0.115
'22:05.492',-0.120,0.145
'22:05.494',-0.115,0.165
'22:05.497',-0.100,0.185
'22:05.500',-0.080,0.215
'22:05.503',-0.055,0.220
'22:05.506',-0.055,0.245
'22:05.508',-0.030,0.245
'22:05.511',-0.015,0.245
'22:05.514',0.025,0.240
'22:05.517',0.060,0.225
'22:05.519',0.085,0.205
'22:05.522',0.110,0.165
'22:05.525',0.130,0.135
'22:05.528',0.115,0.090
'22:05.531',0.110,0.060
'22:05.533',0.080,0.045
'22:05.536',0.055,0.050
'22:05.539',0.050,0.040
'22:05.542',0.055,0.055
'22:05.544',0.065,0.055
'22:05.547',0.075,0.040
'22:05.550',0.075,0.030
'22:05.553',0.060,-0.005
'22:05.556',0.030,-0.030
'22:05.558',0.000,-0.050
'22:05.561',-0.035,-0.060
'22:05.564',-0.080,-0.040
'22:05.567',-0.105,-0.030
'22:05.569',-0.125,-0.010
'22:05.572',-0.140,0.015
'22:05.575',-0.150,0.035
'22:05.578',-0.150,0.040
'22:05.581',-0.155,0.040
'22:05.583',-0.160,0.050
'22:05.586',-0.175,0.040
'22:05.589',-0.170,0.035
'22:05.592',-0.180,0.010
'22:05.594',-0.190,0.015
'22:05.597',-0.220,0.020
'22:05.600',-0.235,0.010
'22:05.603',-0.240,0.025
'22:05.606',-0.240,0.025
'22:05.608',-0.230,0.035
'22:05.611',-0.215,0.035
'22:05.614',-0.200,0.020
'22:05.617',-0.195,0.025
'22:05.619',-0.185,0.030
'22:05.622',-0.175,0.025
'22:05.625',-0.165,0.030
'22:05.628',-0.160,0.060
'22:05.631',-0.140,0.110
'22:05.633',-0.110,0.170
'22:05.636',-0.025,0.210
'22:05.639',0.095,0.245
'22:05.642',0.280,0.205
'22:05.644',0.495,0.130
'22:05.647',0.695,-0.025
'22:05.650',0.880,-0.230
'22:05.653',1.070,-0.490
'22:05.656',1.235,-0.835
'22:05.658',1.380,-1.225
'22:05.661',1.490,-1.655
'22:05.664',1.540,-2.035
'22:05.667',1.540,-2.260
'22:05.669',1.480,-2.355
'22:05.672',1.370,-2.300
'22:05.675',1.205,-2.160
'22:05.678',1.005,-1.970
'22:05.681',0.745,-1.775
'22:05.683',0.470,-1.550
'22:05.686',0.240,-1.320
'22:05.689',0.070,-1.080
'22:05.692',-0.050,-0.865
'22:05.694',-0.100,-0.695
'22:05.697',-0.140,-0.570
'22:05.700',-0.150,-0.470
'22:05.703',-0.165,-0.380
'22:05.706',-0.190,-0.290
'22:05.708',-0.215,-0.210
'22:05.711',-0.265,-0.140
'22:05.714',-0.315,-0.050
'22:05.717',-0.335,0.015
'22:05.719',-0.350,0.060
'22:05.722',-0.355,0.065
'22:05.725',-0.370,0.070
'22:05.728',-0.365,0.075
'22:05.731',-0.365,0.070
'22:05.733',-0.350,0.070
'22:05.736',-0.335,0.095
'22:05.739',-0.335,0.115
'22:05.742',-0.335,0.120
'22:05.744',-0.340,0.130
'22:05.747',-0.350,0.130
'22:05.750',-0.360,0.155
'22:05.753',-0.370,0.155
'22:05.756',-0.380,0.165
'22:05.758',-0.380,0.190
'22:05.761',-0.375,0.180
'22:05.764',-0.390,0.175
'22:05.767',-0.390,0.170
'22:05.769',-0.390,0.185
'22:05.772',-0.385,0.195
'22:05.775',-0.370,0.210
'22:05.778',-0.375,0.245
'22:05.781',-0.375,0.255
'22:05.783',-0.375,0.255
'22:05.786',-0.385,0.255
'22:05.789',-0.405,0.250
'22:05.792',-0.415,0.265
'22:05.794',-0.415,0.275
'22:05.797',-0.410,0.275
'22:05.800',-0.405,0.280
'22:05.803',-0.400,0.290
'22:05.806',-0.400,0.295
'22:05.808',-0.400,0.305
'22:05.811',-0.405,0.305
'22:05.814',-0.420,0.325
'22:05.817',-0.430,0.345
'22:05.819',-0.455,0.355
'22:05.822',-0.475,0.365
'22:05.825',-0.490,0.370
'22:05.828',-0.520,0.380
'22:05.831',-0.510,0.380
'22:05.833',-0.520,0.380
'22:05.836',-0.510,0.395
'22:05.839',-0.495,0.410
'22:05.842',-0.505,0.450
'22:05.844',-0.520,0.460
'22:05.847',-0.530,0.450
'22:05.850',-0.540,0.470
'22:05.853',-0.570,0.465
'22:05.856',-0.570,0.480
'22:05.858',-0.575,0.500
'22:05.861',-0.580,0.510
'22:05.864',-0.575,0.505
'22:05.867',-0.585,0.530
'22:05.869',-0.600,0.525
'22:05.872',-0.620,0.530
'22:05.875',-0.640,0.530
'22:05.878',-0.655,0.545
'22:05.881',-0.645,0.550
'22:05.883',-0.655,0.545
'22:05.886',-0.645,0.565
'22:05.889',-0.630,0.560
'22:05.892',-0.620,0.545
'22:05.894',-0.600,0.530
'22:05.897',-0.605,0.505
'22:05.900',-0.580,0.500
'22:05.903',-0.550,0.465
'22:05.906',-0.530,0.450
'22:05.908',-0.495,0.440
'22:05.911',-0.475,0.435
'22:05.914',-0.440,0.430
'22:05.917',-0.425,0.405
'22:05.919',-0.385,0.390
'22:05.922',-0.365,0.350
'22:05.925',-0.365,0.325
'22:05.928',-0.360,0.285
'22:05.931',-0.340,0.255
'22:05.933',-0.315,0.220
'22:05.936',-0.280,0.215
'22:05.939',-0.255,0.200
'22:05.942',-0.225,0.210
'22:05.944',-0.210,0.190
'22:05.947',-0.190,0.175
'22:05.950',-0.190,0.175
'22:05.953',-0.195,0.160
'22:05.956',-0.215,0.130
'22:05.958',-0.220,0.105
'22:05.961',-0.230,0.095
'22:05.964',-0.260,0.070
'22:05.967',-0.245,0.070
'22:05.969',-0.230,0.080
'22:05.972',-0.225,0.080
'22:05.975',-0.215,0.085
'22:05.978',-0.220,0.090
'22:05.981',-0.220,0.090
'22:05.983',-0.210,0.095
'22:05.986',-0.215,0.090
'22:05.989',-0.205,0.075
'22:05.992',-0.195,0.070
'22:05.994',-0.195,0.065
'22:05.997',-0.215,0.060
'22:06.000',-0.220,0.060
'22:06.003',-0.225,0.060
'22:06.006',-0.205,0.075
'22:06.008',-0.190,0.080
'22:06.011',-0.175,0.090
'22:06.014',-0.145,0.090
'22:06.017',-0.140,0.055
'22:06.019',-0.150,0.075
'22:06.022',-0.145,0.060
'22:06.025',-0.185,0.080
'22:06.028',-0.205,0.080
'22:06.031',-0.220,0.070
'22:06.033',-0.240,0.090
'22:06.036',-0.250,0.080
'22:06.039',-0.260,0.075
'22:06.042',-0.255,0.080
'22:06.044',-0.230,0.075
'22:06.047',-0.220,0.075
'22:06.050',-0.200,0.075
'22:06.053',-0.200,0.100
'22:06.056',-0.165,0.110
'22:06.058',-0.130,0.100
'22:06.061',-0.105,0.085
'22:06.064',-0.080,0.095
'22:06.067',-0.080,0.105
'22:06.069',-0.080,0.120
'22:06.072',-0.100,0.150
'22:06.075',-0.085,0.180
'22:06.078',-0.070,0.225
'22:06.081',-0.025,0.255
'22:06.083',0.015,0.265
'22:06.086',0.045,0.270
'22:06.089',0.070,0.270
'22:06.092',0.090,0.285
'22:06.094',0.130,0.295
'22:06.097',0.190,0.305
'22:06.100',0.280,0.305
'22:06.103',0.400,0.320
'22:06.106',0.525,0.290
'22:06.108',0.645,0.260
'22:06.111',0.745,0.220
'22:06.114',0.815,0.165
'22:06.117',0.865,0.140
'22:06.119',0.895,0.115
'22:06.122',0.960,0.115
'22:06.125',1.045,0.100
'22:06.128',1.140,0.065
'22:06.131',1.215,0.020
'22:06.133',1.295,-0.045
'22:06.136',1.345,-0.115
'22:06.139',1.365,-0.205
'22:06.142',1.355,-0.305
'22:06.144',1.325,-0.410
'22:06.147',1.245,-0.485
'22:06.150',1.090,-0.540
'22:06.153',0.835,-0.560
'22:06.156',0.505,-0.565
'22:06.158',0.090,-0.580
'22:06.161',-0.325,-0.585
'22:06.164',-0.735,-0.585
'22:06.167',-1.050,-0.575
'22:06.169',-1.255,-0.565
'22:06.172',-1.355,-0.565
'22:06.175',-1.365,-0.575
'22:06.178',-1.295,-0.620
'22:06.181',-1.200,-0.670
'22:06.183',-1.095,-0.760
'22:06.186',-1.035,-0.795
'22:06.189',-1.005,-0.815
'22:06.192',-1.005,-0.775
'22:06.194',-0.990,-0.685
'22:06.197',-0.960,-0.580
'22:06.200',-0.910,-0.465
'22:06.203',-0.815,-0.360
'22:06.206',-0.715,-0.275
'22:06.208',-0.585,-0.230
'22:06.211',-0.470,-0.185
'22:06.214',-0.405,-0.140
'22:06.217',-0.370,-0.090
'22:06.219',-0.375,-0.050
'22:06.222',-0.395,-0.035
'22:06.225',-0.425,0.000
'22:06.228',-0.435,0.015
'22:06.231',-0.415,0.035
'22:06.233',-0.405,0.050
'22:06.236',-0.415,0.065
'22:06.239',-0.415,0.065
'22:06.242',-0.425,0.070
'22:06.244',-0.435,0.070
'22:06.247',-0.440,0.045
'22:06.250',-0.435,0.055
'22:06.253',-0.410,0.060
'22:06.256',-0.385,0.075
'22:06.258',-0.360,0.075
'22:06.261',-0.360,0.075
'22:06.264',-0.365,0.060
'22:06.267',-0.375,0.045
'22:06.269',-0.375,0.050
'22:06.272',-0.390,0.065
'22:06.275',-0.405,0.075
'22:06.278',-0.415,0.085
'22:06.281',-0.415,0.110
'22:06.283',-0.425,0.080
'22:06.286',-0.435,0.065
'22:06.289',-0.450,0.035
'22:06.292',-0.470,0.025
'22:06.294',-0.465,0.025
'22:06.297',-0.460,0.040
'22:06.300',-0.450,0.055
'22:06.303',-0.425,0.055
'22:06.306',-0.420,0.040
'22:06.308',-0.410,0.050
'22:06.311',-0.420,0.030
'22:06.314',-0.425,0.050
'22:06.317',-0.440,0.055
'22:06.319',-0.425,0.070
'22:06.322',-0.420,0.085
'22:06.325',-0.420,0.105
'22:06.328',-0.430,0.110
'22:06.331',-0.440,0.125
'22:06.333',-0.440,0.130
'22:06.336',-0.425,0.160
'22:06.339',-0.420,0.175
'22:06.342',-0.390,0.180
'22:06.344',-0.365,0.190
'22:06.347',-0.345,0.200
'22:06.350',-0.340,0.225
'22:06.353',-0.350,0.240
'22:06.356',-0.345,0.270
'22:06.358',-0.325,0.290
'22:06.361',-0.305,0.295
'22:06.364',-0.265,0.295
'22:06.367',-0.255,0.300
'22:06.369',-0.235,0.305
'22:06.372',-0.235,0.295
'22:06.375',-0.230,0.325
'22:06.378',-0.230,0.335
'22:06.381',-0.215,0.345
'22:06.383',-0.190,0.335
'22:06.386',-0.160,0.340
'22:06.389',-0.145,0.330
'22:06.392',-0.135,0.310
'22:06.394',-0.145,0.295
'22:06.397',-0.175,0.265
'22:06.400',-0.195,0.255
'22:06.403',-0.185,0.245
'22:06.406',-0.165,0.245
'22:06.408',-0.155,0.245
'22:06.411',-0.160,0.235
'22:06.414',-0.160,0.240
'22:06.417',-0.170,0.235
'22:06.419',-0.200,0.220
'22:06.422',-0.205,0.215
'22:06.425',-0.225,0.200
'22:06.428',-0.235,0.180
'22:06.431',-0.250,0.180
'22:06.433',-0.245,0.160
'22:06.436',-0.255,0.155
'22:06.439',-0.270,0.155
'22:06.442',-0.265,0.150
'22:06.444',-0.255,0.150
'22:06.447',-0.250,0.135
'22:06.450',-0.240,0.130
'22:06.453',-0.255,0.105
'22:06.456',-0.260,0.095
'22:06.458',-0.270,0.095
'22:06.461',-0.265,0.100
'22:06.464',-0.240,0.100
'22:06.467',-0.190,0.095
'22:06.469',-0.125,0.075
'22:06.472',-0.065,0.050
'22:06.475',0.005,0.045
'22:06.478',0.030,0.040
'22:06.481',0.065,0.030
'22:06.483',0.070,0.050
'22:06.486',0.110,0.040
'22:06.489',0.155,0.025
'22:06.492',0.240,0.020
'22:06.494',0.340,0.025
'22:06.497',0.435,0.020
'22:06.500',0.525,0.000
'22:06.503',0.585,-0.010
'22:06.506',0.590,-0.015
'22:06.508',0.525,-0.045
'22:06.511',0.395,-0.080
'22:06.514',0.180,-0.100
'22:06.517',-0.140,-0.130
'22:06.519',-0.515,-0.130
'22:06.522',-0.895,-0.155
'22:06.525',-1.220,-0.155
'22:06.528',-1.470,-0.165
'22:06.531',-1.655,-0.155
'22:06.533',-1.815,-0.175
'22:06.536',-1.925,-0.160
'22:06.539',-2.000,-0.100
'22:06.542',-2.025,-0.015
'22:06.544',-2.055,0.105
'22:06.547',-2.070,0.205
'22:06.550',-2.080,0.335
'22:06.553',-2.080,0.470
'22:06.556',-2.045,0.580
'22:06.558',-1.990,0.690
'22:06.561',-1.915,0.775
'22:06.564',-1.820,0.860
'22:06.567',-1.700,0.940
'22:06.569',-1.590,0.985
'22:06.572',-1.500,1.045
'22:06.575',-1.425,1.105
'22:06.578',-1.370,1.155
'22:06.581',-1.315,1.185
'22:06.583',-1.235,1.175
'22:06.586',-1.165,1.125
'22:06.589',-1.095,0.995
'22:06.592',-1.025,0.810
'22:06.594',-0.975,0.565
'22:06.597',-0.935,0.290
'22:06.600',-0.905,0.040
'22:06.603',-0.870,-0.165
'22:06.606',-0.830,-0.260
'22:06.608',-0.735,-0.265
'22:06.611',-0.620,-0.220
'22:06.614',-0.475,-0.165
'22:06.617',-0.335,-0.125
'22:06.619',-0.200,-0.095
'22:06.622',-0.085,-0.080
'22:06.625',0.000,-0.065
'22:06.628',0.050,-0.040
'22:06.631',0.075,-0.045
'22:06.633',0.095,-0.045
'22:06.636',0.115,-0.050
'22:06.639',0.140,-0.080
'22:06.642',0.160,-0.125
'22:06.644',0.195,-0.160
'22:06.647',0.210,-0.165
'22:06.650',0.215,-0.160
'22:06.653',0.220,-0.145
'22:06.656',0.220,-0.140
'22:06.658',0.215,-0.145
'22:06.661',0.210,-0.150
'22:06.664',0.225,-0.140
'22:06.667',0.250,-0.140
'22:06.669',0.285,-0.130
'22:06.672',0.290,-0.125
'22:06.675',0.320,-0.125
'22:06.678',0.315,-0.130
'22:06.681',0.315,-0.140
'22:06.683',0.315,-0.140
'22:06.686',0.320,-0.145
'22:06.689',0.345,-0.140
'22:06.692',0.380,-0.130
'22:06.694',0.410,-0.145
'22:06.697',0.435,-0.160
'22:06.700',0.450,-0.140
'22:06.703',0.450,-0.145
'22:06.706',0.440,-0.135
'22:06.708',0.445,-0.150
'22:06.711',0.480,-0.150
'22:06.714',0.535,-0.155
'22:06.717',0.595,-0.155
'22:06.719',0.650,-0.170
'22:06.722',0.690,-0.170
'22:06.725',0.710,-0.180
'22:06.728',0.710,-0.195
'22:06.731',0.695,-0.190
'22:06.733',0.675,-0.185
'22:06.736',0.645,-0.185
'22:06.739',0.610,-0.185
'22:06.742',0.600,-0.185
'22:06.744',0.625,-0.185
'22:06.747',0.675,-0.175
'22:06.750',0.715,-0.180
'22:06.753',0.750,-0.180
'22:06.756',0.780,-0.190
'22:06.758',0.785,-0.205
'22:06.761',0.780,-0.210
'22:06.764',0.770,-0.220
'22:06.767',0.740,-0.235
'22:06.769',0.720,-0.245
'22:06.772',0.720,-0.255
'22:06.775',0.740,-0.275
'22:06.778',0.750,-0.275
'22:06.781',0.765,-0.265
'22:06.783',0.740,-0.260
'22:06.786',0.710,-0.245
'22:06.789',0.660,-0.250
'22:06.792',0.580,-0.250
'22:06.794',0.495,-0.220
'22:06.797',0.410,-0.210
'22:06.800',0.335,-0.170
'22:06.803',0.295,-0.140
'22:06.806',0.265,-0.115
'22:06.808',0.265,-0.090
'22:06.811',0.275,-0.065
'22:06.814',0.270,-0.070
'22:06.817',0.260,-0.045
'22:06.819',0.235,-0.035
'22:06.822',0.225,-0.045
'22:06.825',0.200,-0.020
'22:06.828',0.175,-0.010
'22:06.831',0.140,-0.025
'22:06.833',0.095,-0.015
'22:06.836',0.055,-0.005
'22:06.839',0.050,0.000
'22:06.842',0.015,0.005
'22:06.844',-0.010,0.025
'22:06.847',-0.015,0.040
'22:06.850',-0.010,0.060
'22:06.853',0.000,0.070
'22:06.856',0.005,0.065
'22:06.858',0.025,0.065
'22:06.861',0.025,0.060
'22:06.864',0.015,0.060
'22:06.867',0.010,0.075
'22:06.869',0.005,0.060
'22:06.872',0.010,0.055
'22:06.875',0.025,0.050
'22:06.878',0.035,0.055
'22:06.881',0.030,0.075
'22:06.883',0.040,0.085
'22:06.886',0.040,0.090
'22:06.889',0.050,0.100
'22:06.892',0.070,0.105
'22:06.894',0.070,0.110
'22:06.897',0.055,0.095
'22:06.900',0.010,0.080
'22:06.903',-0.050,0.065
'22:06.906',-0.095,0.065
'22:06.908',-0.125,0.075
'22:06.911',-0.125,0.100
'22:06.914',-0.100,0.115
'22:06.917',-0.040,0.120
'22:06.919',-0.005,0.135
'22:06.922',0.045,0.135
'22:06.925',0.080,0.115
'22:06.928',0.095,0.090
'22:06.931',0.060,0.080
'22:06.933',0.000,0.090
'22:06.936',-0.050,0.095
'22:06.939',-0.075,0.115
'22:06.942',-0.045,0.110
'22:06.944',-0.005,0.115
'22:06.947',0.055,0.095
'22:06.950',0.080,0.080
'22:06.953',0.080,0.055
'22:06.956',0.045,0.045
'22:06.958',0.010,0.035
'22:06.961',0.000,0.055
'22:06.964',0.000,0.060
'22:06.967',0.015,0.095
'22:06.969',0.015,0.110
'22:06.972',0.020,0.115
'22:06.975',0.025,0.095
'22:06.978',0.000,0.075
'22:06.981',-0.025,0.065
'22:06.983',-0.070,0.040
'22:06.986',-0.100,0.045
'22:06.989',-0.130,0.065
'22:06.992',-0.140,0.075
'22:06.994',-0.150,0.080
'22:06.997',-0.150,0.090
'22:07.000',-0.145,0.080
'22:07.003',-0.120,0.095
'22:07.006',-0.090,0.095
'22:07.008',-0.045,0.090
'22:07.011',-0.015,0.085
'22:07.014',0.010,0.085
'22:07.017',0.010,0.090
'22:07.019',-0.025,0.095
'22:07.022',-0.080,0.090
'22:07.025',-0.155,0.080
'22:07.028',-0.200,0.070
'22:07.031',-0.230,0.050
'22:07.033',-0.200,0.040
'22:07.036',-0.155,0.040
'22:07.039',-0.110,0.065
'22:07.042',-0.045,0.090
'22:07.044',0.000,0.095
'22:07.047',0.015,0.090
'22:07.050',0.000,0.090
'22:07.053',-0.030,0.085
'22:07.056',-0.055,0.085
'22:07.058',-0.080,0.065
'22:07.061',-0.095,0.055
'22:07.064',-0.090,0.055
'22:07.067',-0.055,0.055
'22:07.069',-0.045,0.040
'22:07.072',-0.035,0.045
'22:07.075',-0.035,0.055
'22:07.078',-0.030,0.055
'22:07.081',-0.035,0.070
'22:07.083',-0.045,0.090
'22:07.086',-0.060,0.090
'22:07.089',-0.090,0.080
'22:07.092',-0.150,0.060
'22:07.094',-0.190,0.030
'22:07.097',-0.220,0.005
'22:07.100',-0.210,0.015
'22:07.103',-0.205,0.035
'22:07.106',-0.195,0.065
'22:07.108',-0.180,0.090
'22:07.111',-0.185,0.105
'22:07.114',-0.170,0.095
'22:07.117',-0.145,0.085
'22:07.119',-0.140,0.090
'22:07.122',-0.125,0.065
'22:07.125',-0.120,0.080
'22:07.128',-0.105,0.065
'22:07.131',-0.105,0.045
'22:07.133',-0.115,0.050
'22:07.136',-0.130,0.055
'22:07.139',-0.135,0.055
'22:07.142',-0.110,0.065
'22:07.144',-0.080,0.060
'22:07.147',-0.065,0.040
'22:07.150',-0.075,0.035
'22:07.153',-0.105,0.025
'22:07.156',-0.130,0.020
'22:07.158',-0.110,0.035
'22:07.161',-0.105,0.050
'22:07.164',-0.105,0.065
'22:07.167',-0.135,0.070
'22:07.169',-0.165,0.065
'22:07.172',-0.180,0.050
'22:07.175',-0.160,0.035
'22:07.178',-0.155,0.050
'22:07.181',-0.125,0.050
'22:07.183',-0.105,0.050
'22:07.186',-0.100,0.075
'22:07.189',-0.085,0.075
'22:07.192',-0.100,0.075
'22:07.194',-0.110,0.070
'22:07.197',-0.110,0.070
'22:07.200',-0.120,0.070
'22:07.203',-0.120,0.035
'22:07.206',-0.105,0.035
'22:07.208',-0.095,0.020
'22:07.211',-0.080,0.020
'22:07.214',-0.065,0.025
'22:07.217',-0.065,0.030
'22:07.219',-0.090,0.040
'22:07.222',-0.095,0.060
'22:07.225',-0.090,0.070
'22:07.228',-0.095,0.070
'22:07.231',-0.100,0.075
'22:07.233',-0.085,0.080
'22:07.236',-0.075,0.105
'22:07.239',-0.035,0.155
'22:07.242',0.000,0.170
'22:07.244',0.030,0.195
'22:07.247',0.040,0.195
'22:07.250',0.040,0.185
'22:07.253',0.030,0.170
'22:07.256',0.015,0.175
'22:07.258',0.020,0.190
'22:07.261',0.030,0.200
'22:07.264',0.040,0.205
'22:07.267',0.045,0.200
'22:07.269',0.070,0.210
'22:07.272',0.100,0.205
'22:07.275',0.130,0.200
'22:07.278',0.145,0.185
'22:07.281',0.155,0.175
'22:07.283',0.120,0.125
'22:07.286',0.065,0.085
'22:07.289',0.030,0.050
'22:07.292',-0.005,0.025
'22:07.294',-0.025,0.025
'22:07.297',-0.050,0.010
'22:07.300',-0.050,0.010
'22:07.303',-0.040,-0.010
'22:07.306',-0.040,-0.030
'22:07.308',-0.015,-0.045
'22:07.311',0.000,-0.045
'22:07.314',0.015,-0.025
'22:07.317',0.025,-0.025
'22:07.319',-0.005,-0.010
'22:07.322',-0.040,0.000
'22:07.325',-0.080,0.010
'22:07.328',-0.120,0.025
'22:07.331',-0.120,0.040
'22:07.333',-0.125,0.025
'22:07.336',-0.135,0.040
'22:07.339',-0.115,0.040
'22:07.342',-0.090,0.035
'22:07.344',-0.060,0.045
'22:07.347',-0.015,0.065
'22:07.350',-0.010,0.090
'22:07.353',-0.025,0.120
'22:07.356',-0.035,0.110
'22:07.358',-0.065,0.070
'22:07.361',-0.080,0.040
'22:07.364',-0.100,0.010
'22:07.367',-0.120,-0.005
'22:07.369',-0.145,0.005
'22:07.372',-0.125,0.010
'22:07.375',-0.100,0.030
'22:07.378',-0.055,0.065
'22:07.381',0.020,0.120
'22:07.383',0.115,0.175
'22:07.386',0.210,0.220
'22:07.389',0.320,0.255
'22:07.392',0.445,0.225
'22:07.394',0.575,0.155
'22:07.397',0.735,0.030
'22:07.400',0.885,-0.120
'22:07.403',1.005,-0.300
'22:07.406',1.130,-0.495
'22:07.408',1.255,-0.740
'22:07.411',1.380,-1.030
'22:07.414',1.475,-1.335
'22:07.417',1.530,-1.630
'22:07.419',1.505,-1.845
'22:07.422',1.425,-1.955
'22:07.425',1.275,-1.965
'22:07.428',1.040,-1.895
'22:07.431',0.760,-1.745
'22:07.433',0.460,-1.560
'22:07.436',0.215,-1.340
'22:07.439',0.025,-1.125
'22:07.442',-0.040,-0.905
'22:07.444',-0.020,-0.725
'22:07.447',0.030,-0.580
'22:07.450',0.085,-0.455
'22:07.453',0.100,-0.380
'22:07.456',0.070,-0.320
'22:07.458',-0.035,-0.250
'22:07.461',-0.150,-0.175
'22:07.464',-0.255,-0.100
'22:07.467',-0.330,-0.030
'22:07.469',-0.345,0.025
'22:07.472',-0.315,0.070
'22:07.475',-0.275,0.105
'22:07.478',-0.225,0.110
'22:07.481',-0.190,0.095
'22:07.483',-0.190,0.095
'22:07.486',-0.175,0.085
'22:07.489',-0.175,0.095
'22:07.492',-0.165,0.125
'22:07.494',-0.170,0.165
'22:07.497',-0.150,0.190
'22:07.500',-0.140,0.195
'22:07.503',-0.150,0.170
'22:07.506',-0.185,0.155
'22:07.508',-0.235,0.155
'22:07.511',-0.300,0.155
'22:07.514',-0.345,0.185
'22:07.517',-0.340,0.220
'22:07.519',-0.300,0.235
'22:07.522',-0.245,0.245
'22:07.525',-0.200,0.240
'22:07.528',-0.180,0.225
'22:07.531',-0.185,0.195
'22:07.533',-0.215,0.195
'22:07.536',-0.245,0.205
'22:07.539',-0.255,0.235
'22:07.542',-0.250,0.245
'22:07.544',-0.235,0.240
'22:07.547',-0.205,0.240
'22:07.550',-0.195,0.255
'22:07.553',-0.215,0.280
'22:07.556',-0.250,0.305
'22:07.558',-0.285,0.300
'22:07.561',-0.295,0.285
'22:07.564',-0.285,0.275
'22:07.567',-0.260,0.260
'22:07.569',-0.225,0.275
'22:07.572',-0.195,0.295
'22:07.575',-0.205,0.320
'22:07.578',-0.245,0.350
'22:07.581',-0.320,0.365
'22:07.583',-0.375,0.360
'22:07.586',-0.420,0.330
'22:07.589',-0.425,0.325
'22:07.592',-0.415,0.315
'22:07.594',-0.380,0.315
'22:07.597',-0.335,0.345
'22:07.600',-0.335,0.385
'22:07.603',-0.370,0.390
'22:07.606',-0.410,0.400
'22:07.608',-0.430,0.405
'22:07.611',-0.445,0.395
'22:07.614',-0.435,0.390
'22:07.617',-0.430,0.390
'22:07.619',-0.420,0.415
'22:07.622',-0.415,0.430
'22:07.625',-0.430,0.445
'22:07.628',-0.465,0.460
'22:07.631',-0.490,0.480
'22:07.633',-0.540,0.475
'22:07.636',-0.555,0.465
'22:07.639',-0.580,0.450
'22:07.642',-0.595,0.435
'22:07.644',-0.575,0.445
'22:07.647',-0.530,0.485
'22:07.650',-0.500,0.515
'22:07.653',-0.505,0.535
'22:07.656',-0.515,0.545
'22:07.658',-0.555,0.520
'22:07.661',-0.590,0.490
'22:07.664',-0.610,0.450
'22:07.667',-0.630,0.445
'22:07.669',-0.620,0.440
'22:07.672',-0.595,0.455
'22:07.675',-0.535,0.475
'22:07.678',-0.505,0.495
'22:07.681',-0.475,0.520
'22:07.683',-0.470,0.535
'22:07.686',-0.455,0.515
'22:07.689',-0.445,0.465
'22:07.692',-0.425,0.420
'22:07.694',-0.400,0.390
'22:07.697',-0.385,0.380
'22:07.700',-0.360,0.375
'22:07.703',-0.340,0.370
'22:07.706',-0.305,0.390
'22:07.708',-0.290,0.385
'22:07.711',-0.265,0.375
'22:07.714',-0.250,0.355
'22:07.717',-0.245,0.320
'22:07.719',-0.215,0.295
'22:07.722',-0.185,0.275
'22:07.725',-0.125,0.270
'22:07.728',-0.075,0.255
'22:07.731',-0.040,0.265
'22:07.733',-0.025,0.260
'22:07.736',-0.020,0.255
'22:07.739',-0.020,0.250
'22:07.742',-0.045,0.260
'22:07.744',-0.070,0.255
'22:07.747',-0.075,0.230
'22:07.750',-0.070,0.195
'22:07.753',-0.060,0.170
'22:07.756',-0.055,0.170
'22:07.758',-0.080,0.175
'22:07.761',-0.115,0.190
'22:07.764',-0.140,0.195
'22:07.767',-0.150,0.215
'22:07.769',-0.145,0.225
'22:07.772',-0.130,0.225
'22:07.775',-0.115,0.210
'22:07.778',-0.115,0.210
'22:07.781',-0.095,0.205
'22:07.783',-0.075,0.205
'22:07.786',-0.095,0.200
'22:07.789',-0.105,0.200
'22:07.792',-0.130,0.185
'22:07.794',-0.140,0.155
'22:07.797',-0.125,0.140
'22:07.800',-0.115,0.145
'22:07.803',-0.110,0.175
'22:07.806',-0.130,0.190
'22:07.808',-0.160,0.200
'22:07.811',-0.165,0.210
'22:07.814',-0.175,0.220
'22:07.817',-0.170,0.215
'22:07.819',-0.155,0.240
'22:07.822',-0.130,0.265
'22:07.825',-0.105,0.295
'22:07.828',-0.045,0.330
'22:07.831',0.025,0.360
'22:07.833',0.135,0.360
'22:07.836',0.280,0.365
'22:07.839',0.405,0.365
'22:07.842',0.525,0.410
'22:07.844',0.640,0.440
'22:07.847',0.760,0.465
'22:07.850',0.885,0.470
'22:07.853',1.010,0.440
'22:07.856',1.135,0.385
'22:07.858',1.230,0.340
'22:07.861',1.310,0.290
'22:07.864',1.375,0.245
'22:07.867',1.455,0.240
'22:07.869',1.515,0.230
'22:07.872',1.610,0.155
'22:07.875',1.670,0.030
'22:07.878',1.680,-0.130
'22:07.881',1.610,-0.290
'22:07.883',1.450,-0.395
'22:07.886',1.165,-0.455
'22:07.889',0.815,-0.475
'22:07.892',0.380,-0.485
'22:07.894',-0.020,-0.495
'22:07.897',-0.405,-0.505
'22:07.900',-0.705,-0.550
'22:07.903',-0.885,-0.575
'22:07.906',-0.965,-0.640
'22:07.908',-0.965,-0.685
'22:07.911',-0.925,-0.765
'22:07.914',-0.855,-0.815
'22:07.917',-0.775,-0.815
'22:07.919',-0.705,-0.785
'22:07.922',-0.665,-0.710
'22:07.925',-0.635,-0.645
'22:07.928',-0.605,-0.545
'22:07.931',-0.555,-0.435
'22:07.933',-0.470,-0.320
'22:07.936',-0.375,-0.215
'22:07.939',-0.285,-0.120
'22:07.942',-0.195,-0.035
'22:07.944',-0.115,0.035
'22:07.947',-0.070,0.095
'22:07.950',-0.015,0.155
'22:07.953',-0.015,0.200
'22:07.956',-0.025,0.220
'22:07.958',-0.060,0.205
'22:07.961',-0.105,0.200
'22:07.964',-0.125,0.190
'22:07.967',-0.145,0.180
'22:07.969',-0.155,0.185
'22:07.972',-0.140,0.200
'22:07.975',-0.115,0.215
'22:07.978',-0.080,0.225
'22:07.981',-0.035,0.245
'22:07.983',0.000,0.265
'22:07.986',0.020,0.280
'22:07.989',0.005,0.295
'22:07.992',-0.035,0.290
'22:07.994',-0.070,0.285
'22:07.997',-0.090,0.250
'22:08.000',-0.090,0.220
'22:08.003',-0.050,0.230
'22:08.006',0.000,0.255
'22:08.008',0.035,0.300
'22:08.011',0.045,0.320
'22:08.014',0.030,0.310
'22:08.017',0.005,0.280
'22:08.019',-0.005,0.275
'22:08.022',-0.015,0.250
'22:08.025',-0.025,0.260
'22:08.028',-0.010,0.285
'22:08.031',-0.025,0.290
'22:08.033',-0.030,0.315
'22:08.036',-0.055,0.310
'22:08.039',-0.085,0.305
'22:08.042',-0.100,0.305
'22:08.044',-0.105,0.325
'22:08.047',-0.095,0.345
'22:08.050',-0.065,0.380
'22:08.053',-0.045,0.415
'22:08.056',-0.025,0.415
'22:08.058',-0.015,0.410
'22:08.061',-0.015,0.385
'22:08.064',-0.025,0.375
'22:08.067',-0.040,0.370
'22:08.069',-0.045,0.400
'22:08.072',-0.060,0.425
'22:08.075',-0.050,0.430
'22:08.078',-0.005,0.430
'22:08.081',0.045,0.435
'22:08.083',0.085,0.450
'22:08.086',0.135,0.475
'22:08.089',0.175,0.470
'22:08.092',0.210,0.490
'22:08.094',0.220,0.500
'22:08.097',0.220,0.500
'22:08.100',0.205,0.525
'22:08.103',0.170,0.535
'22:08.106',0.140,0.540
'22:08.108',0.110,0.520
'22:08.111',0.085,0.510
'22:08.114',0.075,0.490
'22:08.117',0.115,0.515
'22:08.119',0.135,0.520
'22:08.122',0.175,0.530
'22:08.125',0.215,0.515
'22:08.128',0.210,0.520
'22:08.131',0.210,0.500
'22:08.133',0.200,0.500
'22:08.136',0.190,0.495
'22:08.139',0.185,0.500
'22:08.142',0.190,0.480
'22:08.144',0.215,0.480
'22:08.147',0.215,0.475
'22:08.150',0.225,0.470
'22:08.153',0.220,0.470
'22:08.156',0.210,0.435
'22:08.158',0.155,0.395
'22:08.161',0.120,0.345
'22:08.164',0.080,0.330
'22:08.167',0.060,0.300
'22:08.169',0.065,0.310
'22:08.172',0.070,0.315
'22:08.175',0.085,0.335
'22:08.178',0.115,0.330
'22:08.181',0.140,0.320
'22:08.183',0.155,0.310
'22:08.186',0.160,0.295
'22:08.189',0.155,0.265
'22:08.192',0.110,0.245
'22:08.194',0.065,0.240
'22:08.197',0.030,0.230
'22:08.200',0.020,0.240
'22:08.203',0.010,0.245
'22:08.206',0.030,0.245
'22:08.208',0.050,0.265
'22:08.211',0.065,0.265
'22:08.214',0.090,0.265
'22:08.217',0.115,0.265
'22:08.219',0.120,0.270
'22:08.222',0.110,0.260
'22:08.225',0.085,0.225
'22:08.228',0.045,0.200
'22:08.231',0.000,0.165
'22:08.233',-0.025,0.155
'22:08.236',-0.025,0.170
'22:08.239',-0.015,0.185
'22:08.242',0.025,0.200
'22:08.244',0.055,0.215
'22:08.247',0.090,0.240
'22:08.250',0.125,0.235
'22:08.253',0.130,0.235
'22:08.256',0.140,0.215
'22:08.258',0.115,0.205
'22:08.261',0.115,0.185
'22:08.264',0.115,0.195
'22:08.267',0.100,0.190
'22:08.269',0.070,0.190
'22:08.272',0.070,0.190
'22:08.275',0.065,0.180
'22:08.278',0.075,0.210
'22:08.281',0.105,0.210
'22:08.283',0.135,0.240
'22:08.286',0.145,0.250
'22:08.289',0.115,0.245
'22:08.292',0.060,0.235
'22:08.294',0.020,0.215
'22:08.297',-0.015,0.185
'22:08.300',0.000,0.155
'22:08.303',0.030,0.155
'22:08.306',0.055,0.160
'22:08.308',0.100,0.175
'22:08.311',0.135,0.185
'22:08.314',0.140,0.200
'22:08.317',0.130,0.210
'22:08.319',0.095,0.200
'22:08.322',0.085,0.180
'22:08.325',0.105,0.170
'22:08.328',0.115,0.155
'22:08.331',0.110,0.170
'22:08.333',0.080,0.190
'22:08.336',0.060,0.180
'22:08.339',0.040,0.180
'22:08.342',0.035,0.160
'22:08.344',0.040,0.180
'22:08.347',0.055,0.195
'22:08.350',0.045,0.190
'22:08.353',0.050,0.185
'22:08.356',0.050,0.155
'22:08.358',0.075,0.140
'22:08.361',0.095,0.145
'22:08.364',0.115,0.155
'22:08.367',0.130,0.160
'22:08.369',0.145,0.180
'22:08.372',0.165,0.180
'22:08.375',0.165,0.190
'22:08.378',0.165,0.185
'22:08.381',0.150,0.170
'22:08.383',0.105,0.155
'22:08.386',0.085,0.150
'22:08.389',0.065,0.135
'22:08.392',0.075,0.130
'22:08.394',0.085,0.120
'22:08.397',0.070,0.120
'22:08.400',0.055,0.135
'22:08.403',0.045,0.150
'22:08.406',0.040,0.160
'22:08.408',0.055,0.160
'22:08.411',0.080,0.190
'22:08.414',0.120,0.180
'22:08.417',0.125,0.190
'22:08.419',0.155,0.180
'22:08.422',0.150,0.200
'22:08.425',0.160,0.215
'22:08.428',0.150,0.230
'22:08.431',0.135,0.255
'22:08.433',0.155,0.280
'22:08.436',0.185,0.295
'22:08.439',0.205,0.315
'22:08.442',0.215,0.325
'22:08.444',0.215,0.295
'22:08.447',0.255,0.300
'22:08.450',0.295,0.290
'22:08.453',0.320,0.260
'22:08.456',0.335,0.220
'22:08.458',0.340,0.170
'22:08.461',0.325,0.115
'22:08.464',0.305,0.085
'22:08.467',0.295,0.080
'22:08.469',0.290,0.085
'22:08.472',0.295,0.100
'22:08.475',0.290,0.120
'22:08.478',0.285,0.125
'22:08.481',0.300,0.105
'22:08.483',0.320,0.100
'22:08.486',0.315,0.095
'22:08.489',0.300,0.070
'22:08.492',0.265,0.070
'22:08.494',0.240,0.050
'22:08.497',0.225,0.025
'22:08.500',0.205,0.030
'22:08.503',0.180,0.040
'22:08.506',0.145,0.060
'22:08.508',0.100,0.110
'22:08.511',0.060,0.125
'22:08.514',0.010,0.135
'22:08.517',-0.030,0.105
'22:08.519',-0.045,0.085
'22:08.522',-0.020,0.070
'22:08.525',0.005,0.065
'22:08.528',0.030,0.060
'22:08.531',0.030,0.055
'22:08.533',0.035,0.060
'22:08.536',0.045,0.060
'22:08.539',0.055,0.050
'22:08.542',0.050,0.055
'22:08.544',0.060,0.070
'22:08.547',0.085,0.085
'22:08.550',0.065,0.085
'22:08.553',0.055,0.080
'22:08.556',0.035,0.060
'22:08.558',0.015,0.075
'22:08.561',0.030,0.095
'22:08.564',0.035,0.160
'22:08.567',0.080,0.210
'22:08.569',0.160,0.265
'22:08.572',0.305,0.280
'22:08.575',0.495,0.240
'22:08.578',0.735,0.125
'22:08.581',0.955,-0.055
'22:08.583',1.175,-0.300
'22:08.586',1.350,-0.605
'22:08.589',1.510,-0.975
'22:08.592',1.640,-1.395
'22:08.594',1.720,-1.800
'22:08.597',1.745,-2.135
'22:08.600',1.715,-2.335
'22:08.603',1.645,-2.365
'22:08.606',1.530,-2.280
'22:08.608',1.360,-2.120
'22:08.611',1.155,-1.925
'22:08.614',0.900,-1.720
'22:08.617',0.660,-1.515
'22:08.619',0.450,-1.265
'22:08.622',0.305,-1.055
'22:08.625',0.215,-0.825
'22:08.628',0.170,-0.650
'22:08.631',0.130,-0.510
'22:08.633',0.120,-0.405
'22:08.636',0.095,-0.315
'22:08.639',0.070,-0.245
'22:08.642',0.030,-0.175
'22:08.644',-0.015,-0.090
'22:08.647',-0.070,-0.020
'22:08.650',-0.115,0.035
'22:08.653',-0.155,0.075
'22:08.656',-0.175,0.095
'22:08.658',-0.200,0.090
'22:08.661',-0.205,0.100
'22:08.664',-0.195,0.105
'22:08.667',-0.190,0.110
'22:08.669',-0.180,0.140
'22:08.672',-0.180,0.160
'22:08.675',-0.175,0.200
'22:08.678',-0.170,0.220
'22:08.681',-0.175,0.245
'22:08.683',-0.175,0.250
'22:08.686',-0.190,0.250
'22:08.689',-0.205,0.270
'22:08.692',-0.210,0.295
'22:08.694',-0.190,0.310
'22:08.697',-0.200,0.320
'22:08.700',-0.210,0.320
'22:08.703',-0.205,0.290
'22:08.706',-0.220,0.260
'22:08.708',-0.230,0.235
'22:08.711',-0.230,0.225
'22:08.714',-0.205,0.240
'22:08.717',-0.195,0.250
'22:08.719',-0.185,0.275
'22:08.722',-0.175,0.280
'22:08.725',-0.165,0.295
'22:08.728',-0.185,0.300
'22:08.731',-0.195,0.310
'22:08.733',-0.220,0.325
'22:08.736',-0.220,0.365
'22:08.739',-0.230,0.380
'22:08.742',-0.245,0.400
'22:08.744',-0.260,0.410
'22:08.747',-0.265,0.425
'22:08.750',-0.255,0.430
'22:08.753',-0.260,0.455
'22:08.756',-0.270,0.470
'22:08.758',-0.275,0.480
'22:08.761',-0.290,0.495
'22:08.764',-0.320,0.505
'22:08.767',-0.350,0.525
'22:08.769',-0.370,0.550
'22:08.772',-0.380,0.560
'22:08.775',-0.375,0.585
'22:08.778',-0.360,0.610
'22:08.781',-0.350,0.635
'22:08.783',-0.355,0.645
'22:08.786',-0.360,0.665
'22:08.789',-0.365,0.665
'22:08.792',-0.375,0.675
'22:08.794',-0.405,0.675
'22:08.797',-0.450,0.685
'22:08.800',-0.475,0.695
'22:08.803',-0.510,0.700
'22:08.806',-0.510,0.705
'22:08.808',-0.495,0.710
'22:08.811',-0.475,0.720
'22:08.814',-0.455,0.735
'22:08.817',-0.420,0.745
'22:08.819',-0.415,0.745
'22:08.822',-0.420,0.735
'22:08.825',-0.440,0.720
'22:08.828',-0.445,0.705
'22:08.831',-0.450,0.685
'22:08.833',-0.435,0.665
'22:08.836',-0.420,0.655
'22:08.839',-0.375,0.630
'22:08.842',-0.320,0.610
'22:08.844',-0.270,0.585
'22:08.847',-0.225,0.560
'22:08.850',-0.195,0.535
'22:08.853',-0.185,0.500
'22:08.856',-0.160,0.455
'22:08.858',-0.145,0.415
'22:08.861',-0.115,0.365
'22:08.864',-0.085,0.345
'22:08.867',-0.055,0.310
'22:08.869',-0.045,0.270
'22:08.872',-0.020,0.260
'22:08.875',-0.015,0.235
'22:08.878',0.000,0.215
'22:08.881',0.020,0.200
'22:08.883',0.050,0.180
'22:08.886',0.045,0.185
'22:08.889',0.060,0.185
'22:08.892',0.045,0.165
'22:08.894',0.045,0.150
'22:08.897',0.045,0.125
'22:08.900',0.050,0.125
'22:08.903',0.055,0.125
'22:08.906',0.055,0.125
'22:08.908',0.070,0.130
'22:08.911',0.065,0.120
'22:08.914',0.080,0.120
'22:08.917',0.080,0.110
'22:08.919',0.075,0.120
'22:08.922',0.075,0.115
'22:08.925',0.085,0.120
'22:08.928',0.070,0.120
'22:08.931',0.060,0.110
'22:08.933',0.060,0.100
'22:08.936',0.055,0.100
'22:08.939',0.065,0.105
'22:08.942',0.075,0.120
'22:08.944',0.100,0.125
'22:08.947',0.105,0.145
'22:08.950',0.115,0.155
'22:08.953',0.115,0.175
'22:08.956',0.105,0.155
'22:08.958',0.100,0.150
'22:08.961',0.095,0.145
'22:08.964',0.075,0.110
'22:08.967',0.080,0.125
'22:08.969',0.080,0.140
'22:08.972',0.085,0.155
'22:08.975',0.110,0.195
'22:08.978',0.125,0.220
'22:08.981',0.155,0.245
'22:08.983',0.180,0.265
'22:08.986',0.200,0.295
'22:08.989',0.205,0.305
'22:08.992',0.205,0.320
'22:08.994',0.205,0.325
'22:08.997',0.190,0.330
'22:09.000',0.175,0.320
'22:09.003',0.170,0.320
'22:09.006',0.180,0.310
'22:09.008',0.210,0.295
'22:09.011',0.230,0.270
'22:09.014',0.260,0.225
'22:09.017',0.295,0.190
'22:09.019',0.305,0.170
'22:09.022',0.315,0.155
'22:09.025',0.285,0.145
'22:09.028',0.265,0.130
'22:09.031',0.250,0.120
'22:09.033',0.240,0.105
'22:09.036',0.255,0.120
'22:09.039',0.265,0.125
'22:09.042',0.275,0.115
'22:09.044',0.275,0.110
'22:09.047',0.285,0.110
'22:09.050',0.240,0.095
'22:09.053',0.175,0.100
'22:09.056',0.125,0.095
'22:09.058',0.090,0.080
'22:09.061',0.050,0.075
'22:09.064',0.010,0.090
'22:09.067',-0.020,0.105
'22:09.069',-0.050,0.120
'22:09.072',-0.075,0.125
'22:09.075',-0.085,0.130
'22:09.078',-0.100,0.130
'22:09.081',-0.125,0.135
'22:09.083',-0.135,0.105
'22:09.086',-0.150,0.070
'22:09.089',-0.140,0.045
'22:09.092',-0.150,0.045
'22:09.094',-0.155,0.055
'22:09.097',-0.150,0.075
'22:09.100',-0.165,0.105
'22:09.103',-0.185,0.125
'22:09.106',-0.205,0.125
'22:09.108',-0.235,0.110
'22:09.111',-0.245,0.085
'22:09.114',-0.245,0.095
'22:09.117',-0.235,0.130
'22:09.119',-0.200,0.195
'22:09.122',-0.145,0.285
'22:09.125',-0.105,0.385
'22:09.128',-0.045,0.485
'22:09.131',0.035,0.520
'22:09.133',0.150,0.510
'22:09.136',0.310,0.385
'22:09.139',0.505,0.180
'22:09.142',0.705,-0.085
'22:09.144',0.895,-0.340
'22:09.147',1.070,-0.615
'22:09.150',1.215,-0.915
'22:09.153',1.345,-1.265
'22:09.156',1.450,-1.610
'22:09.158',1.510,-1.950
'22:09.161',1.520,-2.170
'22:09.164',1.475,-2.265
'22:09.167',1.375,-2.235
'22:09.169',1.220,-2.110
'22:09.172',1.045,-1.935
'22:09.175',0.835,-1.765
'22:09.178',0.595,-1.580
'22:09.181',0.365,-1.375
'22:09.183',0.170,-1.150
'22:09.186',0.005,-0.945
'22:09.189',-0.090,-0.745
'22:09.192',-0.140,-0.605
'22:09.194',-0.160,-0.485
'22:09.197',-0.155,-0.375
'22:09.200',-0.140,-0.320
'22:09.203',-0.150,-0.275
'22:09.206',-0.210,-0.215
'22:09.208',-0.290,-0.150
'22:09.211',-0.390,-0.065
'22:09.214',-0.435,0.050
'22:09.217',-0.460,0.165
'22:09.219',-0.455,0.240
'22:09.222',-0.415,0.250
'22:09.225',-0.365,0.235
'22:09.228',-0.340,0.200
'22:09.231',-0.345,0.185
'22:09.233',-0.380,0.175
'22:09.236',-0.435,0.160
'22:09.239',-0.495,0.170
'22:09.242',-0.520,0.220
'22:09.244',-0.530,0.270
'22:09.247',-0.510,0.345
'22:09.250',-0.460,0.370
'22:09.253',-0.430,0.340
'22:09.256',-0.425,0.295
'22:09.258',-0.435,0.265
'22:09.261',-0.465,0.235
'22:09.264',-0.515,0.260
'22:09.267',-0.575,0.325
'22:09.269',-0.580,0.415
'22:09.272',-0.610,0.485
'22:09.275',-0.585,0.470
'22:09.278',-0.555,0.390
'22:09.281',-0.510,0.315
'22:09.283',-0.460,0.295
'22:09.286',-0.445,0.325
'22:09.289',-0.475,0.375
'22:09.292',-0.555,0.400
'22:09.294',-0.660,0.410
'22:09.297',-0.710,0.395
'22:09.300',-0.690,0.385
'22:09.303',-0.630,0.375
'22:09.306',-0.525,0.405
'22:09.308',-0.440,0.445
'22:09.311',-0.405,0.480
'22:09.314',-0.415,0.530
'22:09.317',-0.475,0.540
'22:09.319',-0.540,0.520
'22:09.322',-0.610,0.515
'22:09.325',-0.645,0.520
'22:09.328',-0.670,0.585
'22:09.331',-0.685,0.645
'22:09.333',-0.685,0.675
'22:09.336',-0.680,0.645
'22:09.339',-0.660,0.570
'22:09.342',-0.650,0.520
'22:09.344',-0.660,0.505
'22:09.347',-0.685,0.550
'22:09.350',-0.710,0.620
'22:09.353',-0.765,0.695
'22:09.356',-0.780,0.725
'22:09.358',-0.775,0.705
'22:09.361',-0.750,0.635
'22:09.364',-0.725,0.605
'22:09.367',-0.710,0.615
'22:09.369',-0.700,0.665
'22:09.372',-0.705,0.720
'22:09.375',-0.730,0.770
'22:09.378',-0.750,0.760
'22:09.381',-0.785,0.770
'22:09.383',-0.795,0.765
'22:09.386',-0.800,0.750
'22:09.389',-0.795,0.740
'22:09.392',-0.775,0.700
'22:09.394',-0.750,0.640
'22:09.397',-0.730,0.585
'22:09.400',-0.715,0.570
'22:09.403',-0.700,0.570
'22:09.406',-0.665,0.570
'22:09.408',-0.620,0.580
'22:09.411',-0.575,0.565
'22:09.414',-0.555,0.550
'22:09.417',-0.515,0.520
'22:09.419',-0.500,0.480
'22:09.422',-0.485,0.460
'22:09.425',-0.470,0.445
'22:09.428',-0.465,0.420
'22:09.431',-0.445,0.380
'22:09.433',-0.445,0.345
'22:09.436',-0.440,0.310
'22:09.439',-0.425,0.280
'22:09.442',-0.410,0.295
'22:09.444',-0.400,0.315
'22:09.447',-0.395,0.335
'22:09.450',-0.395,0.325
'22:09.453',-0.375,0.260
'22:09.456',-0.340,0.205
'22:09.458',-0.320,0.180
'22:09.461',-0.320,0.190
'22:09.464',-0.310,0.240
'22:09.467',-0.340,0.290
'22:09.469',-0.380,0.320
'22:09.472',-0.425,0.320
'22:09.475',-0.465,0.295
'22:09.478',-0.475,0.265
'22:09.481',-0.450,0.195
'22:09.483',-0.400,0.130
'22:09.486',-0.345,0.090
'22:09.489',-0.305,0.095
'22:09.492',-0.275,0.130
'22:09.494',-0.260,0.175
'22:09.497',-0.270,0.215
'22:09.500',-0.305,0.235
'22:09.503',-0.345,0.240
'22:09.506',-0.385,0.220
'22:09.508',-0.405,0.225
'22:09.511',-0.420,0.245
'22:09.514',-0.400,0.255
'22:09.517',-0.375,0.220
'22:09.519',-0.350,0.180
'22:09.522',-0.325,0.125
'22:09.525',-0.335,0.105
'22:09.528',-0.340,0.090
'22:09.531',-0.335,0.100
'22:09.533',-0.310,0.125
'22:09.536',-0.290,0.175
'22:09.539',-0.280,0.210
'22:09.542',-0.290,0.250
'22:09.544',-0.305,0.275
'22:09.547',-0.325,0.305
'22:09.550',-0.325,0.290
'22:09.553',-0.320,0.285
'22:09.556',-0.295,0.290
'22:09.558',-0.265,0.325
'22:09.561',-0.250,0.390
'22:09.564',-0.225,0.425
'22:09.567',-0.215,0.415
'22:09.569',-0.210,0.385
'22:09.572',-0.215,0.370
'22:09.575',-0.205,0.345
'22:09.578',-0.205,0.335
'22:09.581',-0.195,0.330
'22:09.583',-0.170,0.345
'22:09.586',-0.160,0.345
'22:09.589',-0.140,0.295
'22:09.592',-0.145,0.245
'22:09.594',-0.145,0.190
'22:09.597',-0.140,0.165
'22:09.600',-0.115,0.150
'22:09.603',-0.080,0.150
'22:09.606',-0.080,0.180
'22:09.608',-0.075,0.205
'22:09.611',-0.085,0.245
'22:09.614',-0.050,0.265
'22:09.617',-0.025,0.250
'22:09.619',-0.040,0.200
'22:09.622',-0.065,0.150
'22:09.625',-0.105,0.130
'22:09.628',-0.180,0.125
'22:09.631',-0.245,0.155
'22:09.633',-0.305,0.170
'22:09.636',-0.345,0.190
'22:09.639',-0.365,0.185
'22:09.642',-0.370,0.165
'22:09.644',-0.350,0.165
'22:09.647',-0.335,0.155
'22:09.650',-0.300,0.185
'22:09.653',-0.310,0.205
'22:09.656',-0.320,0.210
'22:09.658',-0.345,0.215
'22:09.661',-0.370,0.185
'22:09.664',-0.350,0.170
'22:09.667',-0.330,0.155
'22:09.669',-0.295,0.135
'22:09.672',-0.275,0.135
'22:09.675',-0.245,0.135
'22:09.678',-0.235,0.150
'22:09.681',-0.240,0.165
'22:09.683',-0.260,0.175
'22:09.686',-0.295,0.190
'22:09.689',-0.345,0.180
'22:09.692',-0.415,0.200
'22:09.694',-0.435,0.220
'22:09.697',-0.415,0.225
'22:09.700',-0.355,0.265
'22:09.703',-0.255,0.315
'22:09.706',-0.105,0.355
'22:09.708',0.095,0.355
'22:09.711',0.315,0.290
'22:09.714',0.530,0.180
'22:09.717',0.725,0.035
'22:09.719',0.890,-0.145
'22:09.722',1.065,-0.390
'22:09.725',1.235,-0.710
'22:09.728',1.385,-1.070
'22:09.731',1.480,-1.430
'22:09.733',1.530,-1.725
'22:09.736',1.560,-1.905
'22:09.739',1.550,-1.955
'22:09.742',1.490,-1.860
'22:09.744',1.380,-1.700
'22:09.747',1.170,-1.480
'22:09.750',0.895,-1.290
'22:09.753',0.600,-1.080
'22:09.756',0.330,-0.900
'22:09.758',0.120,-0.745
'22:09.761',-0.015,-0.600
'22:09.764',-0.095,-0.450
'22:09.767',-0.120,-0.330
'22:09.769',-0.125,-0.230
'22:09.772',-0.145,-0.160
'22:09.775',-0.155,-0.105
'22:09.778',-0.195,-0.030
'22:09.781',-0.235,0.035
'22:09.783',-0.290,0.085
'22:09.786',-0.315,0.115
'22:09.789',-0.325,0.145
'22:09.792',-0.330,0.160
'22:09.794',-0.335,0.195
'22:09.797',-0.335,0.220
'22:09.800',-0.345,0.260
'22:09.803',-0.360,0.300
'22:09.806',-0.380,0.310
'22:09.808',-0.375,0.305
'22:09.811',-0.370,0.290
'22:09.814',-0.345,0.270
'22:09.817',-0.345,0.245
'22:09.819',-0.335,0.225
'22:09.822',-0.310,0.195
'22:09.825',-0.300,0.200
'22:09.828',-0.300,0.195
'22:09.831',-0.310,0.210
'22:09.833',-0.335,0.235
'22:09.836',-0.340,0.270
'22:09.839',-0.335,0.300
'22:09.842',-0.320,0.325
'22:09.844',-0.290,0.340
'22:09.847',-0.305,0.375
'22:09.850',-0.310,0.380
'22:09.853',-0.325,0.390
'22:09.856',-0.340,0.415
'22:09.858',-0.355,0.435
'22:09.861',-0.360,0.455
'22:09.864',-0.360,0.445
'22:09.867',-0.375,0.415
'22:09.869',-0.355,0.375
'22:09.872',-0.365,0.370
'22:09.875',-0.380,0.355
'22:09.878',-0.390,0.380
'22:09.881',-0.420,0.390
'22:09.883',-0.435,0.410
'22:09.886',-0.445,0.420
'22:09.889',-0.430,0.485
'22:09.892',-0.415,0.520
'22:09.894',-0.390,0.515
'22:09.897',-0.370,0.510
'22:09.900',-0.355,0.495
'22:09.903',-0.365,0.490
'22:09.906',-0.385,0.525
'22:09.908',-0.420,0.550
'22:09.911',-0.455,0.600
'22:09.914',-0.480,0.640
'22:09.917',-0.470,0.665
'22:09.919',-0.460,0.635
'22:09.922',-0.450,0.610
'22:09.925',-0.465,0.570
'22:09.928',-0.495,0.545
'22:09.931',-0.515,0.520
'22:09.933',-0.555,0.550
'22:09.936',-0.555,0.580
'22:09.939',-0.575,0.605
'22:09.942',-0.570,0.635
'22:09.944',-0.575,0.655
'22:09.947',-0.575,0.670
'22:09.950',-0.575,0.700
'22:09.953',-0.570,0.730
'22:09.956',-0.535,0.715
'22:09.958',-0.505,0.690
'22:09.961',-0.495,0.665
'22:09.964',-0.485,0.635
'22:09.967',-0.475,0.595
'22:09.969',-0.470,0.550
'22:09.972',-0.475,0.535
'22:09.975',-0.470,0.555
'22:09.978',-0.465,0.580
'22:09.981',-0.430,0.605
'22:09.983',-0.370,0.605
'22:09.986',-0.320,0.590
'22:09.989',-0.285,0.575
'22:09.992',-0.260,0.520
'22:09.994',-0.265,0.460
'22:09.997',-0.275,0.415
'22:10.000',-0.260,0.380
'22:10.003',-0.245,0.375
'22:10.006',-0.200,0.385
'22:10.008',-0.165,0.395
'22:10.011',-0.160,0.395
'22:10.014',-0.145,0.355
'22:10.017',-0.115,0.305
'22:10.019',-0.085,0.265
'22:10.022',-0.050,0.250
'22:10.025',-0.045,0.230
'22:10.028',-0.050,0.205
'22:10.031',-0.070,0.185
'22:10.033',-0.085,0.200
'22:10.036',-0.090,0.205
'22:10.039',-0.090,0.205
'22:10.042',-0.050,0.175
'22:10.044',-0.015,0.155
'22:10.047',0.060,0.145
'22:10.050',0.125,0.150
'22:10.053',0.155,0.160
'22:10.056',0.160,0.200
'22:10.058',0.110,0.230
'22:10.061',0.055,0.220
'22:10.064',0.005,0.200
'22:10.067',-0.010,0.170
'22:10.069',0.005,0.150
'22:10.072',0.045,0.125
'22:10.075',0.075,0.135
'22:10.078',0.095,0.140
'22:10.081',0.060,0.170
'22:10.083',0.005,0.175
'22:10.086',-0.070,0.220
'22:10.089',-0.100,0.255
'22:10.092',-0.105,0.320
'22:10.094',-0.080,0.380
'22:10.097',-0.015,0.430
'22:10.100',0.065,0.465
'22:10.103',0.140,0.450
'22:10.106',0.220,0.375
'22:10.108',0.265,0.285
'22:10.111',0.290,0.190
'22:10.114',0.295,0.115
'22:10.117',0.285,0.055
'22:10.119',0.275,0.040
'22:10.122',0.245,0.040
'22:10.125',0.185,0.035
'22:10.128',0.085,0.045
'22:10.131',-0.005,0.070
'22:10.133',-0.055,0.090
'22:10.136',-0.020,0.140
'22:10.139',0.050,0.180
'22:10.142',0.105,0.210
'22:10.144',0.115,0.255
'22:10.147',0.045,0.280
'22:10.150',-0.025,0.310
'22:10.153',-0.035,0.325
'22:10.156',0.010,0.330
'22:10.158',0.100,0.305
'22:10.161',0.190,0.285
'22:10.164',0.255,0.260
'22:10.167',0.290,0.255
'22:10.169',0.330,0.255
'22:10.172',0.355,0.275
'22:10.175',0.390,0.290
'22:10.178',0.405,0.280
'22:10.181',0.390,0.270
'22:10.183',0.325,0.260
'22:10.186',0.250,0.265
'22:10.189',0.210,0.300
'22:10.192',0.215,0.325
'22:10.194',0.250,0.355
'22:10.197',0.295,0.330
'22:10.200',0.335,0.300
'22:10.203',0.340,0.260
'22:10.206',0.310,0.175
'22:10.208',0.230,0.110
'22:10.211',0.120,0.080
'22:10.214',0.000,0.140
'22:10.217',-0.100,0.270
'22:10.219',-0.190,0.375
'22:10.222',-0.255,0.420
'22:10.225',-0.270,0.415
'22:10.228',-0.255,0.355
'22:10.231',-0.200,0.290
'22:10.233',-0.120,0.245
'22:10.236',-0.060,0.220
'22:10.239',0.000,0.225
'22:10.242',0.030,0.190
'22:10.244',0.055,0.145
'22:10.247',0.020,0.065
'22:10.250',-0.030,-0.005
'22:10.253',-0.085,-0.050
'22:10.256',-0.180,-0.075
'22:10.258',-0.255,-0.060
'22:10.261',-0.280,-0.025
'22:10.264',-0.285,0.060
'22:10.267',-0.255,0.155
'22:10.269',-0.215,0.250
'22:10.272',-0.165,0.320
'22:10.275',-0.115,0.370
'22:10.278',-0.050,0.465
'22:10.281',-0.010,0.605
'22:10.283',0.050,0.795
'22:10.286',0.150,0.955
'22:10.289',0.330,0.930
'22:10.292',0.525,0.665
'22:10.294',0.685,0.195
'22:10.297',0.825,-0.345
'22:10.300',0.965,-0.850
'22:10.303',1.145,-1.260
'22:10.306',1.330,-1.595
'22:10.308',1.480,-1.850
'22:10.311',1.565,-2.015
'22:10.314',1.575,-2.080
'22:10.317',1.500,-2.065
'22:10.319',1.290,-1.950
'22:10.322',0.995,-1.725
'22:10.325',0.685,-1.405
'22:10.328',0.385,-1.085
'22:10.331',0.140,-0.810
'22:10.333',-0.045,-0.660
'22:10.336',-0.145,-0.615
'22:10.339',-0.210,-0.615
'22:10.342',-0.230,-0.615
'22:10.344',-0.230,-0.540
'22:10.347',-0.195,-0.395
'22:10.350',-0.180,-0.200
'22:10.353',-0.220,-0.005
'22:10.356',-0.305,0.145
'22:10.358',-0.425,0.205
'22:10.361',-0.520,0.200
'22:10.364',-0.590,0.170
'22:10.367',-0.595,0.140
'22:10.369',-0.585,0.140
'22:10.372',-0.565,0.185
'22:10.375',-0.515,0.235
'22:10.378',-0.470,0.265
'22:10.381',-0.415,0.275
'22:10.383',-0.380,0.275
'22:10.386',-0.390,0.270
'22:10.389',-0.410,0.245
'22:10.392',-0.420,0.190
'22:10.394',-0.405,0.150
'22:10.397',-0.395,0.140
'22:10.400',-0.395,0.150
'22:10.403',-0.405,0.185
'22:10.406',-0.420,0.220
'22:10.408',-0.420,0.250
'22:10.411',-0.415,0.265
'22:10.414',-0.365,0.275
'22:10.417',-0.325,0.315
'22:10.419',-0.325,0.330
'22:10.422',-0.340,0.340
'22:10.425',-0.380,0.330
'22:10.428',-0.425,0.330
'22:10.431',-0.430,0.335
'22:10.433',-0.375,0.330
'22:10.436',-0.320,0.335
'22:10.439',-0.315,0.355
'22:10.442',-0.335,0.350
'22:10.444',-0.370,0.355
'22:10.447',-0.395,0.385
'22:10.450',-0.385,0.405
'22:10.453',-0.375,0.420
'22:10.456',-0.350,0.440
'22:10.458',-0.330,0.450
'22:10.461',-0.330,0.430
'22:10.464',-0.355,0.440
'22:10.467',-0.420,0.430
'22:10.469',-0.470,0.455
'22:10.472',-0.515,0.485
'22:10.475',-0.505,0.505
'22:10.478',-0.480,0.510
'22:10.481',-0.415,0.520
'22:10.483',-0.375,0.510
'22:10.486',-0.365,0.480
'22:10.489',-0.390,0.475
'22:10.492',-0.450,0.500
'22:10.494',-0.545,0.545
'22:10.497',-0.650,0.615
'22:10.500',-0.705,0.675
'22:10.503',-0.710,0.715
'22:10.506',-0.680,0.730
'22:10.508',-0.630,0.730
'22:10.511',-0.595,0.700
'22:10.514',-0.560,0.650
'22:10.517',-0.575,0.620
'22:10.519',-0.605,0.595
'22:10.522',-0.605,0.575
'22:10.525',-0.585,0.580
'22:10.528',-0.570,0.590
'22:10.531',-0.575,0.590
'22:10.533',-0.575,0.575
'22:10.536',-0.565,0.560
'22:10.539',-0.540,0.550
'22:10.542',-0.485,0.550
'22:10.544',-0.425,0.535
'22:10.547',-0.385,0.515
'22:10.550',-0.370,0.495
'22:10.553',-0.400,0.455
'22:10.556',-0.420,0.425
'22:10.558',-0.475,0.405
'22:10.561',-0.530,0.395
'22:10.564',-0.615,0.385
'22:10.567',-0.630,0.385
'22:10.569',-0.580,0.365
'22:10.572',-0.500,0.365
'22:10.575',-0.400,0.335
'22:10.578',-0.365,0.290
'22:10.581',-0.345,0.265
'22:10.583',-0.345,0.270
'22:10.586',-0.350,0.285
'22:10.589',-0.340,0.275
'22:10.592',-0.345,0.245
'22:10.594',-0.370,0.215
'22:10.597',-0.370,0.190
'22:10.600',-0.395,0.225
'22:10.603',-0.405,0.300
'22:10.606',-0.405,0.365
'22:10.608',-0.405,0.385
'22:10.611',-0.380,0.350
'22:10.614',-0.345,0.280
'22:10.617',-0.310,0.225
'22:10.619',-0.300,0.205
'22:10.622',-0.300,0.210
'22:10.625',-0.310,0.205
'22:10.628',-0.310,0.195
'22:10.631',-0.325,0.155
'22:10.633',-0.355,0.090
'22:10.636',-0.375,0.070
'22:10.639',-0.410,0.085
'22:10.642',-0.395,0.090
'22:10.644',-0.385,0.075
'22:10.647',-0.375,0.010
'22:10.650',-0.360,-0.060
'22:10.653',-0.340,-0.115
'22:10.656',-0.290,-0.135
'22:10.658',-0.245,-0.095
'22:10.661',-0.230,-0.045
'22:10.664',-0.265,0.000
'22:10.667',-0.305,0.030
'22:10.669',-0.335,0.040
'22:10.672',-0.365,0.055
'22:10.675',-0.335,0.085
'22:10.678',-0.290,0.090
'22:10.681',-0.280,0.135
'22:10.683',-0.280,0.220
'22:10.686',-0.280,0.335
'22:10.689',-0.255,0.405
'22:10.692',-0.255,0.355
'22:10.694',-0.285,0.210
'22:10.697',-0.315,0.025
'22:10.700',-0.315,-0.130
'22:10.703',-0.265,-0.175
'22:10.706',-0.165,-0.115
'22:10.708',-0.070,-0.010
'22:10.711',0.015,0.105
'22:10.714',0.020,0.205
'22:10.717',-0.065,0.280
'22:10.719',-0.175,0.310
'22:10.722',-0.270,0.310
'22:10.725',-0.295,0.280
'22:10.728',-0.255,0.215
'22:10.731',-0.180,0.135
'22:10.733',-0.095,0.065
'22:10.736',-0.010,0.025
'22:10.739',0.045,0.025
'22:10.742',0.090,0.050
'22:10.744',0.080,0.095
'22:10.747',0.040,0.170
'22:10.750',-0.030,0.235
'22:10.753',-0.060,0.275
'22:10.756',-0.030,0.320
'22:10.758',0.030,0.305
'22:10.761',0.085,0.210
'22:10.764',0.080,0.065
'22:10.767',0.040,-0.085
'22:10.769',-0.045,-0.180
'22:10.772',-0.100,-0.175
'22:10.775',-0.100,-0.115
'22:10.778',-0.080,-0.015
'22:10.781',-0.060,0.040
'22:10.783',-0.055,0.110
'22:10.786',-0.095,0.160
'22:10.789',-0.150,0.170
'22:10.792',-0.200,0.115
'22:10.794',-0.240,0.015
'22:10.797',-0.230,-0.060
'22:10.800',-0.215,-0.040
'22:10.803',-0.205,0.055
'22:10.806',-0.215,0.205
'22:10.808',-0.260,0.335
'22:10.811',-0.310,0.375
'22:10.814',-0.330,0.320
'22:10.817',-0.325,0.145
'22:10.819',-0.305,-0.080
'22:10.822',-0.285,-0.275
'22:10.825',-0.270,-0.385
'22:10.828',-0.250,-0.375
'22:10.831',-0.235,-0.280
'22:10.833',-0.225,-0.140
'22:10.836',-0.210,-0.015
'22:10.839',-0.205,0.040
'22:10.842',-0.205,0.000
'22:10.844',-0.215,-0.090
'22:10.847',-0.190,-0.165
'22:10.850',-0.165,-0.185
'22:10.853',-0.090,-0.130
'22:10.856',0.045,-0.055
'22:10.858',0.205,0.000
'22:10.861',0.375,0.005
'22:10.864',0.550,-0.065
'22:10.867',0.735,-0.185
'22:10.869',0.930,-0.355
'22:10.872',1.130,-0.535
'22:10.875',1.330,-0.805
'22:10.878',1.510,-1.130
'22:10.881',1.645,-1.500
'22:10.883',1.700,-1.855
'22:10.886',1.700,-2.105
'22:10.889',1.660,-2.225
'22:10.892',1.590,-2.195
'22:10.894',1.495,-2.085
'22:10.897',1.360,-1.955
'22:10.900',1.140,-1.800
'22:10.903',0.885,-1.665
'22:10.906',0.585,-1.525
'22:10.908',0.285,-1.325
'22:10.911',0.015,-1.105
'22:10.914',-0.170,-0.885
'22:10.917',-0.245,-0.695
'22:10.919',-0.230,-0.535
'22:10.922',-0.140,-0.410
'22:10.925',-0.060,-0.330
'22:10.928',-0.020,-0.270
'22:10.931',-0.060,-0.245
'22:10.933',-0.150,-0.225
'22:10.936',-0.255,-0.220
'22:10.939',-0.330,-0.160
'22:10.942',-0.390,-0.095
'22:10.944',-0.400,-0.030
'22:10.947',-0.360,0.010
'22:10.950',-0.335,0.005
'22:10.953',-0.340,-0.005
'22:10.956',-0.300,-0.005
'22:10.958',-0.270,0.000
'22:10.961',-0.255,0.015
'22:10.964',-0.275,0.010
'22:10.967',-0.350,0.030
'22:10.969',-0.420,0.045
'22:10.972',-0.440,0.070
'22:10.975',-0.405,0.085
'22:10.978',-0.355,0.075
'22:10.981',-0.310,0.080
'22:10.983',-0.300,0.090
'22:10.986',-0.325,0.100
'22:10.989',-0.320,0.095
'22:10.992',-0.330,0.080
'22:10.994',-0.360,0.080
'22:10.997',-0.380,0.100
'22:11.000',-0.420,0.145
'22:11.003',-0.445,0.175
'22:11.006',-0.455,0.195
'22:11.008',-0.415,0.200
'22:11.011',-0.350,0.160
'22:11.014',-0.300,0.125
'22:11.017',-0.280,0.090
'22:11.019',-0.320,0.100
'22:11.022',-0.370,0.125
'22:11.025',-0.430,0.160
'22:11.028',-0.450,0.210
'22:11.031',-0.440,0.230
'22:11.033',-0.375,0.225
'22:11.036',-0.290,0.205
'22:11.039',-0.245,0.220
'22:11.042',-0.265,0.230
'22:11.044',-0.345,0.265
'22:11.047',-0.425,0.295
'22:11.050',-0.465,0.300
'22:11.053',-0.490,0.290
'22:11.056',-0.460,0.275
'22:11.058',-0.435,0.255
'22:11.061',-0.415,0.250
'22:11.064',-0.420,0.280
'22:11.067',-0.435,0.315
'22:11.069',-0.440,0.370
'22:11.072',-0.455,0.410
'22:11.075',-0.465,0.465
'22:11.078',-0.485,0.475
'22:11.081',-0.510,0.460
'22:11.083',-0.540,0.405
'22:11.086',-0.570,0.365
'22:11.089',-0.570,0.345
'22:11.092',-0.555,0.340
'22:11.094',-0.505,0.360
'22:11.097',-0.465,0.385
'22:11.100',-0.445,0.405
'22:11.103',-0.445,0.425
'22:11.106',-0.480,0.440
'22:11.108',-0.515,0.445
'22:11.111',-0.555,0.420
'22:11.114',-0.545,0.390
'22:11.117',-0.525,0.365
'22:11.119',-0.460,0.380
'22:11.122',-0.385,0.410
'22:11.125',-0.350,0.425
'22:11.128',-0.340,0.410
'22:11.131',-0.350,0.400
'22:11.133',-0.360,0.400
'22:11.136',-0.340,0.400
'22:11.139',-0.285,0.375
'22:11.142',-0.210,0.375
'22:11.144',-0.125,0.350
'22:11.147',-0.075,0.325
'22:11.150',-0.065,0.280
'22:11.153',-0.125,0.225
'22:11.156',-0.200,0.155
'22:11.158',-0.240,0.110
'22:11.161',-0.215,0.090
'22:11.164',-0.160,0.120
'22:11.167',-0.070,0.175
'22:11.169',0.010,0.215
'22:11.172',0.065,0.220
'22:11.175',0.085,0.180
'22:11.178',0.095,0.130
'22:11.181',0.080,0.100
'22:11.183',0.075,0.080
'22:11.186',0.060,0.085
'22:11.189',0.040,0.075
'22:11.192',0.020,0.085
'22:11.194',-0.010,0.115
'22:11.197',-0.010,0.135
'22:11.200',0.025,0.135
'22:11.203',0.075,0.105
'22:11.206',0.135,0.040
'22:11.208',0.175,0.005
'22:11.211',0.180,0.000
'22:11.214',0.155,0.040
'22:11.217',0.115,0.075
'22:11.219',0.075,0.105
'22:11.222',0.080,0.110
'22:11.225',0.135,0.140
'22:11.228',0.215,0.140
'22:11.231',0.325,0.145
'22:11.233',0.410,0.100
'22:11.236',0.470,0.040
'22:11.239',0.520,0.000
'22:11.242',0.560,-0.005
'22:11.244',0.630,0.025
'22:11.247',0.710,0.035
'22:11.250',0.780,0.010
'22:11.253',0.860,-0.040
'22:11.256',0.955,-0.080
'22:11.258',1.020,-0.085
'22:11.261',1.045,-0.070
'22:11.264',0.950,-0.055
'22:11.267',0.690,-0.075
'22:11.269',0.290,-0.125
'22:11.272',-0.210,-0.160
'22:11.275',-0.695,-0.180
'22:11.278',-1.095,-0.195
'22:11.281',-1.370,-0.195
'22:11.283',-1.550,-0.225
'22:11.286',-1.695,-0.225
'22:11.289',-1.815,-0.240
'22:11.292',-1.905,-0.220
'22:11.294',-1.960,-0.155
'22:11.297',-1.985,-0.050
'22:11.300',-1.990,0.085
'22:11.303',-1.945,0.250
'22:11.306',-1.875,0.405
'22:11.308',-1.790,0.550
'22:11.311',-1.695,0.665
'22:11.314',-1.635,0.740
'22:11.317',-1.585,0.750
'22:11.319',-1.545,0.710
'22:11.322',-1.495,0.680
'22:11.325',-1.415,0.715
'22:11.328',-1.285,0.820
'22:11.331',-1.140,0.955
'22:11.333',-0.975,1.055
'22:11.336',-0.805,1.090
'22:11.339',-0.660,1.020
'22:11.342',-0.590,0.890
'22:11.344',-0.545,0.705
'22:11.347',-0.515,0.445
'22:11.350',-0.455,0.125
'22:11.353',-0.400,-0.190
'22:11.356',-0.335,-0.440
'22:11.358',-0.260,-0.550
'22:11.361',-0.195,-0.520
'22:11.364',-0.105,-0.415
'22:11.367',0.005,-0.290
'22:11.369',0.155,-0.175
'22:11.372',0.305,-0.100
'22:11.375',0.440,-0.085
'22:11.378',0.530,-0.110
'22:11.381',0.540,-0.185
'22:11.383',0.515,-0.240
'22:11.386',0.520,-0.210
'22:11.389',0.550,-0.110
'22:11.392',0.580,0.015
'22:11.394',0.630,0.085
'22:11.397',0.635,0.055
'22:11.400',0.615,-0.055
'22:11.403',0.605,-0.165
'22:11.406',0.625,-0.255
'22:11.408',0.650,-0.270
'22:11.411',0.705,-0.180
'22:11.414',0.765,-0.070
'22:11.417',0.810,-0.005
'22:11.419',0.815,0.005
'22:11.422',0.805,-0.045
'22:11.425',0.815,-0.125
'22:11.428',0.850,-0.225
'22:11.431',0.870,-0.305
'22:11.433',0.870,-0.385
'22:11.436',0.875,-0.485
'22:11.439',0.885,-0.580
'22:11.442',0.890,-0.590
'22:11.444',0.875,-0.470
'22:11.447',0.860,-0.225
'22:11.450',0.840,0.065
'22:11.453',0.875,0.260
'22:11.456',0.945,0.335
'22:11.458',1.030,0.295
'22:11.461',1.095,0.190
'22:11.464',1.120,0.060
'22:11.467',1.115,-0.045
'22:11.469',1.080,-0.125
'22:11.472',1.010,-0.150
'22:11.475',0.965,-0.130
'22:11.478',0.990,-0.075
'22:11.481',1.040,-0.025
'22:11.483',1.160,-0.005
'22:11.486',1.275,0.000
'22:11.489',1.345,-0.025
'22:11.492',1.340,-0.055
'22:11.494',1.280,-0.075
'22:11.497',1.220,-0.105
'22:11.500',1.170,-0.130
'22:11.503',1.215,-0.165
'22:11.506',1.290,-0.170
'22:11.508',1.370,-0.155
'22:11.511',1.415,-0.140
'22:11.514',1.435,-0.115
'22:11.517',1.435,-0.135
'22:11.519',1.420,-0.155
'22:11.522',1.430,-0.190
'22:11.525',1.445,-0.215
'22:11.528',1.460,-0.250
'22:11.531',1.440,-0.260
'22:11.533',1.405,-0.245
'22:11.536',1.345,-0.220
'22:11.539',1.275,-0.190
'22:11.542',1.210,-0.195
'22:11.544',1.185,-0.205
'22:11.547',1.195,-0.245
'22:11.550',1.220,-0.250
'22:11.553',1.230,-0.225
'22:11.556',1.235,-0.205
'22:11.558',1.190,-0.190
'22:11.561',1.120,-0.165
'22:11.564',1.070,-0.145
'22:11.567',1.055,-0.135
'22:11.569',1.065,-0.140
'22:11.572',1.085,-0.130
'22:11.575',1.060,-0.120
'22:11.578',1.015,-0.115
'22:11.581',0.955,-0.105
'22:11.583',0.910,-0.085
'22:11.586',0.880,-0.080
'22:11.589',0.895,-0.075
'22:11.592',0.910,-0.055
'22:11.594',0.905,-0.040
'22:11.597',0.865,-0.030
'22:11.600',0.825,-0.015
'22:11.603',0.805,0.000
'22:11.606',0.790,0.025
'22:11.608',0.785,0.050
'22:11.611',0.795,0.060
'22:11.614',0.790,0.060
'22:11.617',0.825,0.080
'22:11.619',0.835,0.080
'22:11.622',0.865,0.100
'22:11.625',0.865,0.100
'22:11.628',0.870,0.105
'22:11.631',0.815,0.085
'22:11.633',0.735,0.075
'22:11.636',0.680,0.065
'22:11.639',0.685,0.075
'22:11.642',0.740,0.095
'22:11.644',0.795,0.085
'22:11.647',0.835,0.065
'22:11.650',0.870,0.040
'22:11.653',0.865,0.020
'22:11.656',0.855,0.025
'22:11.658',0.830,0.055
'22:11.661',0.810,0.080
'22:11.664',0.775,0.120
'22:11.667',0.760,0.110
'22:11.669',0.760,0.100
'22:11.672',0.815,0.070
'22:11.675',0.890,0.025
'22:11.678',0.960,0.000
'22:11.681',1.005,-0.020
'22:11.683',0.960,0.000
'22:11.686',0.815,0.010
'22:11.689',0.675,0.050
'22:11.692',0.570,0.090
'22:11.694',0.560,0.120
'22:11.697',0.590,0.120
'22:11.700',0.640,0.125
'22:11.703',0.695,0.100
'22:11.706',0.725,0.075
'22:11.708',0.735,0.070
'22:11.711',0.715,0.070
'22:11.714',0.685,0.100
'22:11.717',0.670,0.115
'22:11.719',0.645,0.115
'22:11.722',0.655,0.105
'22:11.725',0.660,0.075
'22:11.728',0.680,0.035
'22:11.731',0.685,0.015
'22:11.733',0.685,0.010
'22:11.736',0.670,0.040
'22:11.739',0.680,0.065
'22:11.742',0.710,0.080
'22:11.744',0.745,0.105
'22:11.747',0.770,0.100
'22:11.750',0.760,0.100
'22:11.753',0.730,0.135
'22:11.756',0.720,0.160
'22:11.758',0.695,0.200
'22:11.761',0.720,0.200
'22:11.764',0.755,0.205
'22:11.767',0.800,0.190
'22:11.769',0.795,0.165
'22:11.772',0.755,0.150
'22:11.775',0.700,0.120
'22:11.778',0.660,0.110
'22:11.781',0.640,0.085
'22:11.783',0.650,0.080
'22:11.786',0.645,0.105
'22:11.789',0.645,0.130
'22:11.792',0.645,0.145
'22:11.794',0.660,0.170
'22:11.797',0.675,0.175
'22:11.800',0.675,0.155
'22:11.803',0.670,0.130
'22:11.806',0.650,0.115
'22:11.808',0.635,0.110
'22:11.811',0.635,0.115
'22:11.814',0.645,0.115
'22:11.817',0.650,0.115
'22:11.819',0.650,0.145
'22:11.822',0.645,0.130
'22:11.825',0.635,0.120
'22:11.828',0.625,0.105
'22:11.831',0.600,0.105
'22:11.833',0.615,0.105
'22:11.836',0.645,0.110
'22:11.839',0.665,0.125
'22:11.842',0.680,0.140
'22:11.844',0.670,0.155
'22:11.847',0.680,0.155
'22:11.850',0.655,0.155
'22:11.853',0.640,0.135
'22:11.856',0.620,0.110
'22:11.858',0.610,0.080
'22:11.861',0.620,0.080
'22:11.864',0.640,0.100
'22:11.867',0.675,0.140
'22:11.869',0.705,0.180
'22:11.872',0.710,0.200
'22:11.875',0.705,0.215
'22:11.878',0.705,0.240
'22:11.881',0.740,0.260
'22:11.883',0.755,0.285
'22:11.886',0.780,0.325
'22:11.889',0.825,0.345
'22:11.892',0.840,0.365
'22:11.894',0.865,0.365
'22:11.897',0.865,0.365
'22:11.900',0.860,0.375
'22:11.903',0.880,0.355
'22:11.906',0.895,0.345
'22:11.908',0.920,0.315
'22:11.911',0.935,0.295
'22:11.914',0.955,0.265
'22:11.917',0.975,0.240
'22:11.919',0.975,0.190
'22:11.922',0.985,0.155
'22:11.925',0.960,0.140
'22:11.928',0.930,0.135
'22:11.931',0.910,0.125
'22:11.933',0.895,0.130
'22:11.936',0.895,0.120
'22:11.939',0.920,0.130
'22:11.942',0.955,0.125
'22:11.944',0.965,0.125
'22:11.947',0.970,0.110
'22:11.950',0.930,0.095
'22:11.953',0.875,0.095
'22:11.956',0.825,0.105
'22:11.958',0.790,0.105
'22:11.961',0.755,0.125
'22:11.964',0.720,0.160
'22:11.967',0.725,0.175
'22:11.969',0.740,0.195
'22:11.972',0.740,0.220
'22:11.975',0.750,0.235
'22:11.978',0.745,0.240
'22:11.981',0.730,0.225
'22:11.983',0.730,0.190
'22:11.986',0.730,0.160
'22:11.989',0.740,0.135
'22:11.992',0.760,0.120
'22:11.994',0.765,0.115
'22:11.997',0.785,0.120
'22:12.000',0.805,0.120
'22:12.003',0.785,0.145
'22:12.006',0.735,0.180
'22:12.008',0.670,0.220
'22:12.011',0.630,0.235
'22:12.014',0.625,0.240
'22:12.017',0.660,0.240
'22:12.019',0.730,0.280
'22:12.022',0.835,0.300
'22:12.025',0.985,0.315
'22:12.028',1.160,0.325
'22:12.031',1.345,0.245
'22:12.033',1.540,0.120
'22:12.036',1.705,-0.040
'22:12.039',1.840,-0.265
'22:12.042',1.955,-0.530
'22:12.044',2.065,-0.865
'22:12.047',2.150,-1.240
'22:12.050',2.200,-1.605
'22:12.053',2.215,-1.920
'22:12.056',2.210,-2.095
'22:12.058',2.175,-2.130
'22:12.061',2.095,-2.040
'22:12.064',1.920,-1.895
'22:12.067',1.665,-1.685
'22:12.069',1.365,-1.475
'22:12.072',1.090,-1.225
'22:12.075',0.900,-0.965
'22:12.078',0.775,-0.720
'22:12.081',0.705,-0.540
'22:12.083',0.695,-0.405
'22:12.086',0.705,-0.310
'22:12.089',0.710,-0.230
'22:12.092',0.735,-0.165
'22:12.094',0.750,-0.095
'22:12.097',0.745,-0.015
'22:12.100',0.705,0.075
'22:12.103',0.645,0.135
'22:12.106',0.565,0.190
'22:12.108',0.515,0.215
'22:12.111',0.520,0.235
'22:12.114',0.540,0.255
'22:12.117',0.555,0.260
'22:12.119',0.540,0.260
'22:12.122',0.520,0.260
'22:12.125',0.530,0.270
'22:12.128',0.545,0.290
'22:12.131',0.575,0.290
'22:12.133',0.595,0.305
'22:12.136',0.590,0.310
'22:12.139',0.560,0.345
'22:12.142',0.530,0.365
'22:12.144',0.530,0.395
'22:12.147',0.550,0.415
'22:12.150',0.570,0.425
'22:12.153',0.585,0.435
'22:12.156',0.585,0.435
'22:12.158',0.575,0.430
'22:12.161',0.545,0.410
'22:12.164',0.520,0.375
'22:12.167',0.505,0.330
'22:12.169',0.505,0.290
'22:12.172',0.515,0.275
'22:12.175',0.545,0.270
'22:12.178',0.575,0.320
'22:12.181',0.600,0.345
'22:12.183',0.595,0.380
'22:12.186',0.565,0.415
'22:12.189',0.550,0.435
'22:12.192',0.495,0.435
'22:12.194',0.445,0.430
'22:12.197',0.425,0.435
'22:12.200',0.430,0.430
'22:12.203',0.465,0.415
'22:12.206',0.475,0.435
'22:12.208',0.490,0.460
'22:12.211',0.490,0.490
'22:12.214',0.490,0.520
'22:12.217',0.495,0.525
'22:12.219',0.475,0.495
'22:12.222',0.440,0.480
'22:12.225',0.400,0.480
'22:12.228',0.365,0.500
'22:12.231',0.340,0.530
'22:12.233',0.325,0.540
'22:12.236',0.310,0.530
'22:12.239',0.275,0.510
'22:12.242',0.275,0.535
'22:12.244',0.285,0.570
'22:12.247',0.320,0.640
'22:12.250',0.345,0.660
'22:12.253',0.300,0.650
'22:12.256',0.250,0.630
'22:12.258',0.190,0.610
'22:12.261',0.165,0.590
'22:12.264',0.155,0.600
'22:12.267',0.160,0.600
'22:12.269',0.175,0.600
'22:12.272',0.190,0.595
'22:12.275',0.205,0.580
'22:12.278',0.210,0.560
'22:12.281',0.240,0.550
'22:12.283',0.280,0.530
'22:12.286',0.310,0.540
'22:12.289',0.300,0.565
'22:12.292',0.230,0.550
'22:12.294',0.150,0.545
'22:12.297',0.085,0.515
'22:12.300',0.105,0.530
'22:12.303',0.150,0.535
'22:12.306',0.240,0.575
'22:12.308',0.305,0.585
'22:12.311',0.370,0.580
'22:12.314',0.375,0.555
'22:12.317',0.380,0.490
'22:12.319',0.390,0.445
'22:12.322',0.450,0.415
'22:12.325',0.490,0.375
'22:12.328',0.500,0.390
'22:12.331',0.495,0.380
'22:12.333',0.510,0.370
'22:12.336',0.555,0.370
'22:12.339',0.615,0.370
'22:12.342',0.660,0.345
'22:12.344',0.665,0.310
'22:12.347',0.655,0.270
'22:12.350',0.650,0.235
'22:12.353',0.680,0.190
'22:12.356',0.725,0.190
'22:12.358',0.755,0.190
'22:12.361',0.770,0.205
'22:12.364',0.765,0.210
'22:12.367',0.750,0.205
'22:12.369',0.730,0.210
'22:12.372',0.715,0.220
'22:12.375',0.700,0.205
'22:12.378',0.690,0.200
'22:12.381',0.715,0.180
'22:12.383',0.755,0.160
'22:12.386',0.780,0.160
'22:12.389',0.805,0.170
'22:12.392',0.815,0.190
'22:12.394',0.815,0.195
'22:12.397',0.800,0.195
'22:12.400',0.780,0.225
'22:12.403',0.775,0.280
'22:12.406',0.760,0.325
'22:12.408',0.755,0.345
'22:12.411',0.745,0.320
'22:12.414',0.735,0.290
'22:12.417',0.745,0.245
'22:12.419',0.750,0.215
'22:12.422',0.760,0.175
'22:12.425',0.770,0.160
'22:12.428',0.780,0.135
'22:12.431',0.775,0.130
'22:12.433',0.775,0.110
'22:12.436',0.775,0.110
'22:12.439',0.775,0.105
'22:12.442',0.785,0.095
'22:12.444',0.810,0.120
'22:12.447',0.840,0.165
'22:12.450',0.855,0.200
'22:12.453',0.850,0.235
'22:12.456',0.870,0.245
'22:12.458',0.875,0.285
'22:12.461',0.855,0.305
'22:12.464',0.835,0.315
'22:12.467',0.845,0.300
'22:12.469',0.850,0.295
'22:12.472',0.860,0.275
'22:12.475',0.860,0.280
'22:12.478',0.870,0.280
'22:12.481',0.875,0.290
'22:12.483',0.910,0.295
'22:12.486',0.940,0.290
'22:12.489',0.975,0.295
'22:12.492',1.015,0.305
'22:12.494',1.035,0.340
'22:12.497',1.040,0.340
'22:12.500',1.020,0.325
'22:12.503',0.980,0.280
'22:12.506',0.935,0.270
'22:12.508',0.940,0.250
'22:12.511',0.975,0.230
'22:12.514',1.035,0.195
'22:12.517',1.060,0.140
'22:12.519',1.040,0.070
'22:12.522',0.970,0.035
'22:12.525',0.915,0.010
'22:12.528',0.875,0.005
'22:12.531',0.830,0.060
'22:12.533',0.810,0.105
'22:12.536',0.805,0.175
'22:12.539',0.810,0.220
'22:12.542',0.810,0.255
'22:12.544',0.820,0.250
'22:12.547',0.805,0.250
'22:12.550',0.790,0.245
'22:12.553',0.770,0.260
'22:12.556',0.800,0.270
'22:12.558',0.795,0.260
'22:12.561',0.760,0.195
'22:12.564',0.665,0.145
'22:12.567',0.580,0.145
'22:12.569',0.560,0.155
'22:12.572',0.560,0.195
'22:12.575',0.585,0.215
'22:12.578',0.625,0.220
'22:12.581',0.665,0.185
'22:12.583',0.700,0.095
'22:12.586',0.730,0.010
'22:12.589',0.745,-0.050
'22:12.592',0.720,-0.065
'22:12.594',0.675,-0.050
'22:12.597',0.655,-0.035
'22:12.600',0.635,0.000
'22:12.603',0.645,0.030
'22:12.606',0.650,0.090
'22:12.608',0.690,0.180
'22:12.611',0.780,0.255
'22:12.614',0.935,0.305
'22:12.617',1.140,0.290
'22:12.619',1.350,0.205
'22:12.622',1.535,0.045
'22:12.625',1.670,-0.145
'22:12.628',1.775,-0.365
'22:12.631',1.860,-0.640
'22:12.633',1.955,-0.975
'22:12.636',2.055,-1.315
'22:12.639',2.145,-1.630
'22:12.642',2.175,-1.865
'22:12.644',2.165,-2.000
'22:12.647',2.095,-2.010
'22:12.650',1.965,-1.925
'22:12.653',1.745,-1.790
'22:12.656',1.445,-1.635
'22:12.658',1.130,-1.505
'22:12.661',0.880,-1.360
'22:12.664',0.700,-1.185
'22:12.667',0.620,-0.970
'22:12.669',0.595,-0.750
'22:12.672',0.605,-0.535
'22:12.675',0.635,-0.375
'22:12.678',0.665,-0.260
'22:12.681',0.670,-0.145
'22:12.683',0.640,-0.050
'22:12.686',0.590,0.015
'22:12.689',0.540,0.060
'22:12.692',0.530,0.070
'22:12.694',0.520,0.115
'22:12.697',0.520,0.140
'22:12.700',0.530,0.180
'22:12.703',0.540,0.185
'22:12.706',0.535,0.190
'22:12.708',0.515,0.160
'22:12.711',0.495,0.165
'22:12.714',0.515,0.190
'22:12.717',0.560,0.205
'22:12.719',0.590,0.255
'22:12.722',0.570,0.295
'22:12.725',0.500,0.315
'22:12.728',0.415,0.295
'22:12.731',0.350,0.240
'22:12.733',0.315,0.220
'22:12.736',0.340,0.225
'22:12.739',0.380,0.240
'22:12.742',0.420,0.275
'22:12.744',0.455,0.275
'22:12.747',0.500,0.300
'22:12.750',0.535,0.335
'22:12.753',0.535,0.395
'22:12.756',0.510,0.490
'22:12.758',0.465,0.620
'22:12.761',0.430,0.690
'22:12.764',0.415,0.690
'22:12.767',0.385,0.605
'22:12.769',0.350,0.455
'22:12.772',0.310,0.280
'22:12.775',0.305,0.170
'22:12.778',0.335,0.100
'22:12.781',0.385,0.110
'22:12.783',0.415,0.155
'22:12.786',0.420,0.260
'22:12.789',0.400,0.335
'22:12.792',0.350,0.360
'22:12.794',0.315,0.360
'22:12.797',0.280,0.330
'22:12.800',0.265,0.300
'22:12.803',0.260,0.315
'22:12.806',0.245,0.340
'22:12.808',0.250,0.380
'22:12.811',0.280,0.375
'22:12.814',0.325,0.385
'22:12.817',0.335,0.390
'22:12.819',0.320,0.420
'22:12.822',0.280,0.460
'22:12.825',0.220,0.450
'22:12.828',0.155,0.445
'22:12.831',0.125,0.450
'22:12.833',0.140,0.465
'22:12.836',0.180,0.490
'22:12.839',0.210,0.530
'22:12.842',0.190,0.570
'22:12.844',0.135,0.555
'22:12.847',0.075,0.545
'22:12.850',0.035,0.490
'22:12.853',0.045,0.465
'22:12.856',0.105,0.450
'22:12.858',0.160,0.475
'22:12.861',0.210,0.505
'22:12.864',0.210,0.530
'22:12.867',0.165,0.500
'22:12.869',0.155,0.430
'22:12.872',0.190,0.365
'22:12.875',0.230,0.310
'22:12.878',0.270,0.275
'22:12.881',0.285,0.235
'22:12.883',0.305,0.180
'22:12.886',0.300,0.140
'22:12.889',0.300,0.155
'22:12.892',0.305,0.230
'22:12.894',0.365,0.345
'22:12.897',0.405,0.445
'22:12.900',0.440,0.515
'22:12.903',0.430,0.515
'22:12.906',0.380,0.470
'22:12.908',0.350,0.370
'22:12.911',0.325,0.280
'22:12.914',0.340,0.215
'22:12.917',0.410,0.205
'22:12.919',0.485,0.205
'22:12.922',0.550,0.205
'22:12.925',0.575,0.210
'22:12.928',0.555,0.185
'22:12.931',0.500,0.110
'22:12.933',0.415,-0.010
'22:12.936',0.375,-0.100
'22:12.939',0.365,-0.110
'22:12.942',0.405,-0.035
'22:12.944',0.445,0.080
'22:12.947',0.495,0.180
'22:12.950',0.510,0.240
'22:12.953',0.495,0.245
'22:12.956',0.475,0.215
'22:12.958',0.460,0.200
'22:12.961',0.430,0.205
'22:12.964',0.405,0.205
'22:12.967',0.415,0.225
'22:12.969',0.395,0.205
'22:12.972',0.395,0.210
'22:12.975',0.400,0.200
'22:12.978',0.425,0.210
'22:12.981',0.435,0.185
'22:12.983',0.425,0.130
'22:12.986',0.375,0.085
'22:12.989',0.350,0.050
'22:12.992',0.350,0.025
'22:12.994',0.380,0.030
'22:12.997',0.425,0.065
'22:13.000',0.435,0.110
'22:13.003',0.420,0.135
'22:13.006',0.395,0.125
'22:13.008',0.360,0.080
'22:13.011',0.355,0.055
'22:13.014',0.375,0.065
'22:13.017',0.400,0.095
'22:13.019',0.425,0.125
'22:13.022',0.450,0.150
'22:13.025',0.465,0.175
'22:13.028',0.460,0.195
'22:13.031',0.460,0.225
'22:13.033',0.470,0.270
'22:13.036',0.525,0.340
'22:13.039',0.565,0.395
'22:13.042',0.585,0.430
'22:13.044',0.590,0.425
'22:13.047',0.590,0.400
'22:13.050',0.580,0.375
'22:13.053',0.585,0.345
'22:13.056',0.590,0.330
'22:13.058',0.615,0.325
'22:13.061',0.635,0.315
'22:13.064',0.660,0.300
'22:13.067',0.635,0.280
'22:13.069',0.610,0.255
'22:13.072',0.570,0.210
'22:13.075',0.540,0.165
'22:13.078',0.540,0.145
'22:13.081',0.550,0.155
'22:13.083',0.570,0.160
'22:13.086',0.585,0.180
'22:13.089',0.635,0.185
'22:13.092',0.645,0.160
'22:13.094',0.630,0.130
'22:13.097',0.575,0.105
'22:13.100',0.520,0.070
'22:13.103',0.465,0.075
'22:13.106',0.435,0.095
'22:13.108',0.450,0.140
'22:13.111',0.485,0.170
'22:13.114',0.515,0.175
'22:13.117',0.525,0.190
'22:13.119',0.480,0.170
'22:13.122',0.430,0.155
'22:13.125',0.375,0.125
'22:13.128',0.345,0.080
'22:13.131',0.320,0.050
'22:13.133',0.305,0.060
'22:13.136',0.320,0.090
'22:13.139',0.305,0.125
'22:13.142',0.325,0.115
'22:13.144',0.345,0.080
'22:13.147',0.380,0.055
'22:13.150',0.385,0.055
'22:13.153',0.340,0.100
'22:13.156',0.320,0.125
'22:13.158',0.300,0.130
'22:13.161',0.315,0.120
'22:13.164',0.330,0.130
'22:13.167',0.340,0.145
'22:13.169',0.355,0.170
'22:13.172',0.420,0.180
'22:13.175',0.535,0.155
'22:13.178',0.700,0.130
'22:13.181',0.890,0.130
'22:13.183',1.080,0.095
'22:13.186',1.250,0.005
'22:13.189',1.410,-0.100
'22:13.192',1.555,-0.225
'22:13.194',1.680,-0.370
'22:13.197',1.790,-0.565
'22:13.200',1.865,-0.785
'22:13.203',1.920,-1.040
'22:13.206',1.920,-1.270
'22:13.208',1.860,-1.460
'22:13.211',1.755,-1.605
'22:13.214',1.565,-1.640
'22:13.217',1.290,-1.590
'22:13.219',0.915,-1.445
'22:13.222',0.530,-1.240
'22:13.225',0.205,-1.010
'22:13.228',0.060,-0.790
'22:13.231',0.050,-0.590
'22:13.233',0.115,-0.445
'22:13.236',0.140,-0.345
'22:13.239',0.135,-0.290
'22:13.242',0.105,-0.270
'22:13.244',0.100,-0.230
'22:13.247',0.110,-0.185
'22:13.250',0.130,-0.100
'22:13.253',0.155,-0.015
'22:13.256',0.155,0.055
'22:13.258',0.150,0.095
'22:13.261',0.115,0.110
'22:13.264',0.100,0.135
'22:13.267',0.095,0.130
'22:13.269',0.100,0.140
'22:13.272',0.100,0.160
'22:13.275',0.095,0.170
'22:13.278',0.095,0.155
'22:13.281',0.105,0.125
'22:13.283',0.090,0.135
'22:13.286',0.080,0.150
'22:13.289',0.100,0.190
'22:13.292',0.135,0.215
'22:13.294',0.175,0.195
'22:13.297',0.190,0.180
'22:13.300',0.180,0.190
'22:13.303',0.170,0.185
'22:13.306',0.125,0.200
'22:13.308',0.055,0.180
'22:13.311',0.010,0.175
'22:13.314',-0.025,0.175
'22:13.317',-0.015,0.185
'22:13.319',0.000,0.185
'22:13.322',0.045,0.200
'22:13.325',0.090,0.215
'22:13.328',0.120,0.225
'22:13.331',0.095,0.245
'22:13.333',0.065,0.250
'22:13.336',0.045,0.255
'22:13.339',0.015,0.255
'22:13.342',0.020,0.270
'22:13.344',0.030,0.280
'22:13.347',0.070,0.280
'22:13.350',0.085,0.315
'22:13.353',0.105,0.310
'22:13.356',0.085,0.300
'22:13.358',0.070,0.290
'22:13.361',0.025,0.265
'22:13.364',-0.005,0.245
'22:13.367',-0.050,0.220
'22:13.369',-0.065,0.230
'22:13.372',-0.075,0.235
'22:13.375',-0.080,0.265
'22:13.378',-0.085,0.290
'22:13.381',-0.065,0.300
'22:13.383',-0.025,0.315
'22:13.386',0.000,0.335
'22:13.389',-0.010,0.365
'22:13.392',-0.060,0.360
'22:13.394',-0.135,0.345
'22:13.397',-0.205,0.325
'22:13.400',-0.250,0.325
'22:13.403',-0.265,0.340
'22:13.406',-0.245,0.355
'22:13.408',-0.185,0.375
'22:13.411',-0.135,0.375
'22:13.414',-0.065,0.415
'22:13.417',-0.015,0.440
'22:13.419',0.015,0.470
'22:13.422',-0.005,0.475
'22:13.425',-0.045,0.435
'22:13.428',-0.125,0.370
'22:13.431',-0.220,0.340
