'Elapsed time','MLII','V1'
'hh:mm:ss.mmm','mV','mV'
'25:00.000',0.435,-0.180
'25:00.003',0.450,-0.175
'25:00.006',0.480,-0.180
'25:00.008',0.510,-0.160
'25:00.011',0.540,-0.125
'25:00.014',0.595,-0.100
'25:00.017',0.670,-0.090
'25:00.019',0.760,-0.055
'25:00.022',0.855,-0.070
'25:00.025',0.995,-0.080
'25:00.028',1.130,-0.105
'25:00.031',1.305,-0.135
'25:00.033',1.495,-0.180
'25:00.036',1.730,-0.235
'25:00.039',1.955,-0.300
'25:00.042',2.165,-0.360
'25:00.044',2.320,-0.400
'25:00.047',2.440,-0.430
'25:00.050',2.535,-0.475
'25:00.053',2.590,-0.530
'25:00.056',2.605,-0.600
'25:00.058',2.570,-0.700
'25:00.061',2.460,-0.820
'25:00.064',2.260,-0.920
'25:00.067',1.950,-1.005
'25:00.069',1.565,-1.040
'25:00.072',1.180,-1.055
'25:00.075',0.810,-1.040
'25:00.078',0.530,-0.970
'25:00.081',0.355,-0.890
'25:00.083',0.290,-0.815
'25:00.086',0.285,-0.735
'25:00.089',0.330,-0.685
'25:00.092',0.370,-0.630
'25:00.094',0.395,-0.610
'25:00.097',0.395,-0.575
'25:00.100',0.390,-0.555
'25:00.103',0.370,-0.515
'25:00.106',0.355,-0.495
'25:00.108',0.330,-0.445
'25:00.111',0.330,-0.400
'25:00.114',0.345,-0.355
'25:00.117',0.360,-0.315
'25:00.119',0.370,-0.275
'25:00.122',0.380,-0.260
'25:00.125',0.380,-0.250
'25:00.128',0.365,-0.245
'25:00.131',0.365,-0.260
'25:00.133',0.365,-0.250
'25:00.136',0.350,-0.275
'25:00.139',0.335,-0.265
'25:00.142',0.315,-0.280
'25:00.144',0.300,-0.275
'25:00.147',0.285,-0.260
'25:00.150',0.290,-0.255
'25:00.153',0.280,-0.225
'25:00.156',0.290,-0.205
'25:00.158',0.315,-0.200
'25:00.161',0.305,-0.220
'25:00.164',0.320,-0.230
'25:00.167',0.295,-0.240
'25:00.169',0.270,-0.240
'25:00.172',0.240,-0.235
'25:00.175',0.215,-0.220
'25:00.178',0.215,-0.220
'25:00.181',0.235,-0.235
'25:00.183',0.260,-0.255
'25:00.186',0.270,-0.280
'25:00.189',0.270,-0.290
'25:00.192',0.280,-0.300
'25:00.194',0.265,-0.280
'25:00.197',0.255,-0.285
'25:00.200',0.255,-0.290
'25:00.203',0.240,-0.275
'25:00.206',0.220,-0.290
'25:00.208',0.200,-0.295
'25:00.211',0.155,-0.290
'25:00.214',0.140,-0.290
'25:00.217',0.130,-0.260
'25:00.219',0.135,-0.250
'25:00.222',0.145,-0.245
'25:00.225',0.155,-0.240
'25:00.228',0.150,-0.250
'25:00.231',0.130,-0.250
'25:00.233',0.130,-0.270
'25:00.236',0.130,-0.285
'25:00.239',0.120,-0.280
'25:00.242',0.120,-0.290
'25:00.244',0.110,-0.270
'25:00.247',0.105,-0.265
'25:00.250',0.100,-0.260
'25:00.253',0.115,-0.260
'25:00.256',0.130,-0.250
'25:00.258',0.125,-0.245
'25:00.261',0.135,-0.260
'25:00.264',0.105,-0.255
'25:00.267',0.085,-0.265
'25:00.269',0.055,-0.250
'25:00.272',0.035,-0.245
'25:00.275',-0.005,-0.245
'25:00.278',0.000,-0.225
'25:00.281',0.005,-0.230
'25:00.283',0.000,-0.230
'25:00.286',0.030,-0.225
'25:00.289',0.050,-0.195
'25:00.292',0.090,-0.200
'25:00.294',0.095,-0.195
'25:00.297',0.080,-0.190
'25:00.300',0.085,-0.195
'25:00.303',0.070,-0.215
'25:00.306',0.060,-0.245
'25:00.308',0.050,-0.270
'25:00.311',0.050,-0.285
'25:00.314',0.065,-0.275
'25:00.317',0.090,-0.250
'25:00.319',0.115,-0.255
'25:00.322',0.160,-0.245
'25:00.325',0.180,-0.250
'25:00.328',0.205,-0.265
'25:00.331',0.240,-0.265
'25:00.333',0.230,-0.270
'25:00.336',0.235,-0.260
'25:00.339',0.240,-0.255
'25:00.342',0.240,-0.250
'25:00.344',0.225,-0.240
'25:00.347',0.230,-0.245
'25:00.350',0.240,-0.240
'25:00.353',0.260,-0.230
'25:00.356',0.285,-0.215
'25:00.358',0.325,-0.220
'25:00.361',0.350,-0.210
'25:00.364',0.360,-0.220
'25:00.367',0.365,-0.215
'25:00.369',0.360,-0.250
'25:00.372',0.350,-0.285
'25:00.375',0.350,-0.330
'25:00.378',0.330,-0.335
'25:00.381',0.335,-0.350
'25:00.383',0.335,-0.340
'25:00.386',0.355,-0.315
'25:00.389',0.350,-0.290
'25:00.392',0.365,-0.290
'25:00.394',0.380,-0.285
'25:00.397',0.390,-0.265
'25:00.400',0.380,-0.295
'25:00.403',0.370,-0.295
'25:00.406',0.365,-0.305
'25:00.408',0.355,-0.330
'25:00.411',0.365,-0.345
'25:00.414',0.335,-0.350
'25:00.417',0.330,-0.355
'25:00.419',0.315,-0.345
'25:00.422',0.290,-0.320
'25:00.425',0.295,-0.285
'25:00.428',0.300,-0.290
'25:00.431',0.300,-0.285
'25:00.433',0.320,-0.285
'25:00.436',0.325,-0.295
'25:00.439',0.320,-0.315
'25:00.442',0.315,-0.300
'25:00.444',0.300,-0.300
'25:00.447',0.270,-0.310
'25:00.450',0.265,-0.300
'25:00.453',0.245,-0.300
'25:00.456',0.235,-0.320
'25:00.458',0.235,-0.310
'25:00.461',0.225,-0.315
'25:00.464',0.215,-0.310
'25:00.467',0.210,-0.310
'25:00.469',0.200,-0.280
'25:00.472',0.185,-0.240
'25:00.475',0.200,-0.225
'25:00.478',0.195,-0.235
'25:00.481',0.205,-0.265
'25:00.483',0.210,-0.300
'25:00.486',0.220,-0.345
'25:00.489',0.215,-0.350
'25:00.492',0.220,-0.325
'25:00.494',0.220,-0.290
'25:00.497',0.220,-0.265
'25:00.500',0.200,-0.255
'25:00.503',0.200,-0.250
'25:00.506',0.205,-0.275
'25:00.508',0.220,-0.315
'25:00.511',0.235,-0.355
'25:00.514',0.225,-0.375
'25:00.517',0.240,-0.385
'25:00.519',0.240,-0.370
'25:00.522',0.210,-0.355
'25:00.525',0.185,-0.350
'25:00.528',0.170,-0.325
'25:00.531',0.165,-0.295
'25:00.533',0.180,-0.295
'25:00.536',0.190,-0.305
'25:00.539',0.205,-0.310
'25:00.542',0.215,-0.310
'25:00.544',0.225,-0.315
'25:00.547',0.240,-0.295
'25:00.550',0.260,-0.290
'25:00.553',0.265,-0.280
'25:00.556',0.270,-0.285
'25:00.558',0.265,-0.275
'25:00.561',0.255,-0.270
'25:00.564',0.255,-0.260
'25:00.567',0.270,-0.250
'25:00.569',0.285,-0.230
'25:00.572',0.310,-0.245
'25:00.575',0.310,-0.235
'25:00.578',0.300,-0.250
'25:00.581',0.310,-0.260
'25:00.583',0.330,-0.260
'25:00.586',0.345,-0.275
'25:00.589',0.385,-0.260
'25:00.592',0.405,-0.285
'25:00.594',0.410,-0.290
'25:00.597',0.400,-0.315
'25:00.600',0.360,-0.325
'25:00.603',0.340,-0.335
'25:00.606',0.320,-0.360
'25:00.608',0.335,-0.335
'25:00.611',0.350,-0.330
'25:00.614',0.360,-0.295
'25:00.617',0.360,-0.260
'25:00.619',0.340,-0.255
'25:00.622',0.310,-0.240
'25:00.625',0.280,-0.265
'25:00.628',0.245,-0.295
'25:00.631',0.230,-0.305
'25:00.633',0.200,-0.320
'25:00.636',0.205,-0.325
'25:00.639',0.215,-0.330
'25:00.642',0.215,-0.340
'25:00.644',0.240,-0.340
'25:00.647',0.250,-0.330
'25:00.650',0.255,-0.320
'25:00.653',0.250,-0.305
'25:00.656',0.245,-0.295
'25:00.658',0.230,-0.275
'25:00.661',0.195,-0.275
'25:00.664',0.185,-0.240
'25:00.667',0.185,-0.210
'25:00.669',0.185,-0.190
'25:00.672',0.210,-0.195
'25:00.675',0.240,-0.210
'25:00.678',0.270,-0.240
'25:00.681',0.280,-0.250
'25:00.683',0.300,-0.265
'25:00.686',0.320,-0.290
'25:00.689',0.335,-0.315
'25:00.692',0.345,-0.355
'25:00.694',0.350,-0.395
'25:00.697',0.350,-0.425
'25:00.700',0.350,-0.425
'25:00.703',0.380,-0.405
'25:00.706',0.440,-0.390
'25:00.708',0.515,-0.350
'25:00.711',0.630,-0.335
'25:00.714',0.770,-0.310
'25:00.717',0.905,-0.295
'25:00.719',1.080,-0.300
'25:00.722',1.260,-0.305
'25:00.725',1.450,-0.305
'25:00.728',1.635,-0.350
'25:00.731',1.815,-0.370
'25:00.733',1.990,-0.430
'25:00.736',2.145,-0.495
'25:00.739',2.255,-0.575
'25:00.742',2.330,-0.655
'25:00.744',2.375,-0.745
'25:00.747',2.360,-0.825
'25:00.750',2.250,-0.900
'25:00.753',1.990,-0.970
'25:00.756',1.595,-1.005
'25:00.758',1.100,-1.045
'25:00.761',0.600,-1.045
'25:00.764',0.215,-0.995
'25:00.767',-0.025,-0.960
'25:00.769',-0.110,-0.870
'25:00.772',-0.090,-0.785
'25:00.775',-0.015,-0.725
'25:00.778',0.050,-0.650
'25:00.781',0.110,-0.600
'25:00.783',0.165,-0.555
'25:00.786',0.190,-0.530
'25:00.789',0.165,-0.505
'25:00.792',0.130,-0.470
'25:00.794',0.080,-0.435
'25:00.797',0.010,-0.400
'25:00.800',-0.015,-0.375
'25:00.803',-0.010,-0.340
'25:00.806',0.005,-0.330
'25:00.808',0.030,-0.310
'25:00.811',0.050,-0.330
'25:00.814',0.065,-0.325
'25:00.817',0.080,-0.325
'25:00.819',0.075,-0.340
'25:00.822',0.045,-0.325
'25:00.825',0.040,-0.320
'25:00.828',0.025,-0.320
'25:00.831',0.035,-0.315
'25:00.833',0.040,-0.325
'25:00.836',0.035,-0.325
'25:00.839',0.000,-0.325
'25:00.842',-0.060,-0.315
'25:00.844',-0.095,-0.290
'25:00.847',-0.130,-0.265
'25:00.850',-0.125,-0.225
'25:00.853',-0.095,-0.240
'25:00.856',-0.060,-0.250
'25:00.858',-0.015,-0.290
'25:00.861',0.010,-0.325
'25:00.864',0.015,-0.345
'25:00.867',0.000,-0.365
'25:00.869',-0.030,-0.350
'25:00.872',-0.070,-0.355
'25:00.875',-0.125,-0.335
'25:00.878',-0.160,-0.310
'25:00.881',-0.180,-0.285
'25:00.883',-0.160,-0.270
'25:00.886',-0.130,-0.260
'25:00.889',-0.105,-0.265
'25:00.892',-0.080,-0.265
'25:00.894',-0.070,-0.285
'25:00.897',-0.070,-0.280
'25:00.900',-0.070,-0.315
'25:00.903',-0.080,-0.320
'25:00.906',-0.105,-0.335
'25:00.908',-0.145,-0.345
'25:00.911',-0.180,-0.340
'25:00.914',-0.235,-0.325
'25:00.917',-0.265,-0.295
'25:00.919',-0.285,-0.260
'25:00.922',-0.285,-0.250
'25:00.925',-0.270,-0.235
'25:00.928',-0.245,-0.245
'25:00.931',-0.220,-0.270
'25:00.933',-0.210,-0.280
'25:00.936',-0.205,-0.295
'25:00.939',-0.230,-0.305
'25:00.942',-0.265,-0.305
'25:00.944',-0.295,-0.275
'25:00.947',-0.320,-0.245
'25:00.950',-0.310,-0.185
'25:00.953',-0.290,-0.190
'25:00.956',-0.265,-0.200
'25:00.958',-0.245,-0.250
'25:00.961',-0.235,-0.310
'25:00.964',-0.230,-0.355
'25:00.967',-0.240,-0.355
'25:00.969',-0.240,-0.340
'25:00.972',-0.240,-0.310
'25:00.975',-0.235,-0.290
'25:00.978',-0.215,-0.255
'25:00.981',-0.220,-0.260
'25:00.983',-0.200,-0.250
'25:00.986',-0.180,-0.260
'25:00.989',-0.155,-0.260
'25:00.992',-0.135,-0.255
'25:00.994',-0.115,-0.270
'25:00.997',-0.105,-0.280
'25:01.000',-0.085,-0.270
'25:01.003',-0.070,-0.270
'25:01.006',-0.065,-0.270
'25:01.008',-0.065,-0.265
'25:01.011',-0.070,-0.260
'25:01.014',-0.070,-0.250
'25:01.017',-0.070,-0.245
'25:01.019',-0.045,-0.240
'25:01.022',-0.040,-0.230
'25:01.025',-0.030,-0.235
'25:01.028',-0.020,-0.235
'25:01.031',0.000,-0.220
'25:01.033',0.030,-0.235
'25:01.036',0.030,-0.250
'25:01.039',0.015,-0.280
'25:01.042',0.000,-0.275
'25:01.044',-0.035,-0.275
'25:01.047',-0.035,-0.290
'25:01.050',-0.040,-0.280
'25:01.053',-0.015,-0.260
'25:01.056',0.000,-0.265
'25:01.058',0.025,-0.275
'25:01.061',0.045,-0.280
'25:01.064',0.045,-0.285
'25:01.067',0.030,-0.290
'25:01.069',0.020,-0.300
'25:01.072',0.025,-0.305
'25:01.075',-0.005,-0.310
'25:01.078',-0.005,-0.305
'25:01.081',0.005,-0.325
'25:01.083',0.010,-0.325
'25:01.086',0.015,-0.325
'25:01.089',0.010,-0.320
'25:01.092',0.005,-0.320
'25:01.094',0.015,-0.325
'25:01.097',0.015,-0.330
'25:01.100',0.025,-0.355
'25:01.103',0.020,-0.340
'25:01.106',0.010,-0.345
'25:01.108',0.015,-0.345
'25:01.111',0.020,-0.325
'25:01.114',0.015,-0.330
'25:01.117',0.005,-0.325
'25:01.119',0.015,-0.330
'25:01.122',0.005,-0.325
'25:01.125',0.005,-0.320
'25:01.128',0.000,-0.330
'25:01.131',-0.015,-0.330
'25:01.133',-0.035,-0.335
'25:01.136',-0.055,-0.350
'25:01.139',-0.095,-0.340
'25:01.142',-0.095,-0.340
'25:01.144',-0.090,-0.325
'25:01.147',-0.100,-0.310
'25:01.150',-0.090,-0.305
'25:01.153',-0.105,-0.320
'25:01.156',-0.115,-0.335
'25:01.158',-0.125,-0.335
'25:01.161',-0.125,-0.340
'25:01.164',-0.130,-0.315
'25:01.167',-0.115,-0.295
'25:01.169',-0.105,-0.285
'25:01.172',-0.110,-0.295
'25:01.175',-0.120,-0.315
'25:01.178',-0.135,-0.315
'25:01.181',-0.130,-0.340
'25:01.183',-0.135,-0.335
'25:01.186',-0.130,-0.345
'25:01.189',-0.125,-0.365
'25:01.192',-0.105,-0.375
'25:01.194',-0.100,-0.390
'25:01.197',-0.100,-0.395
'25:01.200',-0.115,-0.360
'25:01.203',-0.155,-0.350
'25:01.206',-0.180,-0.310
'25:01.208',-0.195,-0.305
'25:01.211',-0.195,-0.305
'25:01.214',-0.160,-0.320
'25:01.217',-0.105,-0.335
'25:01.219',-0.080,-0.355
'25:01.222',-0.065,-0.355
'25:01.225',-0.080,-0.360
'25:01.228',-0.120,-0.360
'25:01.231',-0.165,-0.355
'25:01.233',-0.195,-0.340
'25:01.236',-0.200,-0.335
'25:01.239',-0.190,-0.315
'25:01.242',-0.165,-0.310
'25:01.244',-0.130,-0.315
'25:01.247',-0.100,-0.330
'25:01.250',-0.075,-0.320
'25:01.253',-0.065,-0.325
'25:01.256',-0.060,-0.320
'25:01.258',-0.055,-0.300
'25:01.261',-0.065,-0.305
'25:01.264',-0.065,-0.295
'25:01.267',-0.060,-0.295
'25:01.269',-0.055,-0.305
'25:01.272',-0.025,-0.315
'25:01.275',-0.010,-0.330
'25:01.278',0.010,-0.330
'25:01.281',0.025,-0.330
'25:01.283',0.020,-0.335
'25:01.286',0.025,-0.340
'25:01.289',0.010,-0.340
'25:01.292',0.000,-0.355
'25:01.294',-0.005,-0.340
'25:01.297',-0.005,-0.325
'25:01.300',-0.015,-0.330
'25:01.303',-0.035,-0.330
'25:01.306',-0.065,-0.345
'25:01.308',-0.100,-0.365
'25:01.311',-0.120,-0.385
'25:01.314',-0.135,-0.415
'25:01.317',-0.130,-0.395
'25:01.319',-0.115,-0.385
'25:01.322',-0.100,-0.350
'25:01.325',-0.080,-0.335
'25:01.328',-0.070,-0.335
'25:01.331',-0.060,-0.340
'25:01.333',-0.070,-0.355
'25:01.336',-0.090,-0.370
'25:01.339',-0.125,-0.380
'25:01.342',-0.145,-0.370
'25:01.344',-0.185,-0.345
'25:01.347',-0.205,-0.335
'25:01.350',-0.225,-0.305
'25:01.353',-0.215,-0.325
'25:01.356',-0.215,-0.320
'25:01.358',-0.200,-0.335
'25:01.361',-0.190,-0.355
'25:01.364',-0.185,-0.335
'25:01.367',-0.170,-0.355
'25:01.369',-0.160,-0.345
'25:01.372',-0.160,-0.360
'25:01.375',-0.165,-0.375
'25:01.378',-0.150,-0.375
'25:01.381',-0.130,-0.380
'25:01.383',-0.130,-0.365
'25:01.386',-0.100,-0.355
'25:01.389',-0.065,-0.350
'25:01.392',-0.020,-0.345
'25:01.394',0.035,-0.360
'25:01.397',0.115,-0.365
'25:01.400',0.205,-0.360
'25:01.403',0.315,-0.360
'25:01.406',0.490,-0.355
'25:01.408',0.715,-0.360
'25:01.411',1.005,-0.350
'25:01.414',1.320,-0.370
'25:01.417',1.605,-0.415
'25:01.419',1.820,-0.495
'25:01.422',1.985,-0.555
'25:01.425',2.095,-0.640
'25:01.428',2.150,-0.770
'25:01.431',2.185,-0.890
'25:01.433',2.125,-1.020
'25:01.436',1.955,-1.110
'25:01.439',1.635,-1.170
'25:01.442',1.190,-1.185
'25:01.444',0.665,-1.155
'25:01.447',0.195,-1.110
'25:01.450',-0.155,-1.035
'25:01.453',-0.345,-0.935
'25:01.456',-0.415,-0.865
'25:01.458',-0.385,-0.790
'25:01.461',-0.365,-0.755
'25:01.464',-0.335,-0.710
'25:01.467',-0.320,-0.685
'25:01.469',-0.305,-0.645
'25:01.472',-0.315,-0.620
'25:01.475',-0.305,-0.570
'25:01.478',-0.295,-0.500
'25:01.481',-0.295,-0.465
'25:01.483',-0.295,-0.405
'25:01.486',-0.290,-0.370
'25:01.489',-0.305,-0.340
'25:01.492',-0.295,-0.310
'25:01.494',-0.295,-0.315
'25:01.497',-0.305,-0.325
'25:01.500',-0.310,-0.350
'25:01.503',-0.345,-0.370
'25:01.506',-0.365,-0.405
'25:01.508',-0.375,-0.400
'25:01.511',-0.385,-0.385
'25:01.514',-0.370,-0.390
'25:01.517',-0.375,-0.380
'25:01.519',-0.360,-0.365
'25:01.522',-0.345,-0.340
'25:01.525',-0.345,-0.330
'25:01.528',-0.350,-0.335
'25:01.531',-0.350,-0.340
'25:01.533',-0.360,-0.340
'25:01.536',-0.365,-0.345
'25:01.539',-0.360,-0.360
'25:01.542',-0.360,-0.375
'25:01.544',-0.370,-0.380
'25:01.547',-0.380,-0.375
'25:01.550',-0.410,-0.365
'25:01.553',-0.450,-0.355
'25:01.556',-0.465,-0.335
'25:01.558',-0.465,-0.320
'25:01.561',-0.465,-0.315
'25:01.564',-0.455,-0.300
'25:01.567',-0.445,-0.285
'25:01.569',-0.445,-0.280
'25:01.572',-0.440,-0.295
'25:01.575',-0.445,-0.310
'25:01.578',-0.455,-0.365
'25:01.581',-0.450,-0.390
'25:01.583',-0.460,-0.390
'25:01.586',-0.480,-0.385
'25:01.589',-0.490,-0.350
'25:01.592',-0.500,-0.310
'25:01.594',-0.500,-0.285
'25:01.597',-0.495,-0.270
'25:01.600',-0.485,-0.255
'25:01.603',-0.475,-0.260
'25:01.606',-0.475,-0.265
'25:01.608',-0.470,-0.285
'25:01.611',-0.470,-0.335
'25:01.614',-0.485,-0.370
'25:01.617',-0.520,-0.410
'25:01.619',-0.550,-0.405
'25:01.622',-0.590,-0.365
'25:01.625',-0.610,-0.315
'25:01.628',-0.625,-0.265
'25:01.631',-0.610,-0.240
'25:01.633',-0.600,-0.245
'25:01.636',-0.590,-0.265
'25:01.639',-0.575,-0.295
'25:01.642',-0.575,-0.310
'25:01.644',-0.580,-0.315
'25:01.647',-0.585,-0.300
'25:01.650',-0.595,-0.290
'25:01.653',-0.600,-0.285
'25:01.656',-0.595,-0.300
'25:01.658',-0.590,-0.300
'25:01.661',-0.590,-0.320
'25:01.664',-0.590,-0.310
'25:01.667',-0.575,-0.315
'25:01.669',-0.555,-0.315
'25:01.672',-0.535,-0.300
'25:01.675',-0.515,-0.295
'25:01.678',-0.490,-0.310
'25:01.681',-0.480,-0.300
'25:01.683',-0.460,-0.270
'25:01.686',-0.450,-0.290
'25:01.689',-0.470,-0.260
'25:01.692',-0.475,-0.255
'25:01.694',-0.465,-0.245
'25:01.697',-0.455,-0.245
'25:01.700',-0.405,-0.255
'25:01.703',-0.355,-0.255
'25:01.706',-0.305,-0.260
'25:01.708',-0.280,-0.285
'25:01.711',-0.290,-0.300
'25:01.714',-0.335,-0.305
'25:01.717',-0.390,-0.315
'25:01.719',-0.440,-0.315
'25:01.722',-0.470,-0.280
'25:01.725',-0.455,-0.245
'25:01.728',-0.415,-0.235
'25:01.731',-0.355,-0.235
'25:01.733',-0.290,-0.250
'25:01.736',-0.235,-0.260
'25:01.739',-0.205,-0.275
'25:01.742',-0.210,-0.285
'25:01.744',-0.240,-0.270
'25:01.747',-0.255,-0.245
'25:01.750',-0.290,-0.210
'25:01.753',-0.305,-0.195
'25:01.756',-0.295,-0.205
'25:01.758',-0.295,-0.245
'25:01.761',-0.275,-0.305
'25:01.764',-0.265,-0.340
'25:01.767',-0.255,-0.380
'25:01.769',-0.250,-0.395
'25:01.772',-0.255,-0.405
'25:01.775',-0.260,-0.385
'25:01.778',-0.265,-0.375
'25:01.781',-0.270,-0.360
'25:01.783',-0.285,-0.345
'25:01.786',-0.270,-0.320
'25:01.789',-0.260,-0.305
'25:01.792',-0.250,-0.300
'25:01.794',-0.240,-0.295
'25:01.797',-0.240,-0.305
'25:01.800',-0.245,-0.345
'25:01.803',-0.275,-0.375
'25:01.806',-0.305,-0.405
'25:01.808',-0.300,-0.410
'25:01.811',-0.305,-0.405
'25:01.814',-0.290,-0.375
'25:01.817',-0.260,-0.365
'25:01.819',-0.240,-0.355
'25:01.822',-0.265,-0.355
'25:01.825',-0.270,-0.350
'25:01.828',-0.270,-0.350
'25:01.831',-0.260,-0.350
'25:01.833',-0.255,-0.355
'25:01.836',-0.250,-0.350
'25:01.839',-0.245,-0.375
'25:01.842',-0.240,-0.375
'25:01.844',-0.235,-0.390
'25:01.847',-0.280,-0.380
'25:01.850',-0.335,-0.370
'25:01.853',-0.415,-0.360
'25:01.856',-0.490,-0.340
'25:01.858',-0.530,-0.310
'25:01.861',-0.550,-0.305
'25:01.864',-0.525,-0.275
'25:01.867',-0.485,-0.275
'25:01.869',-0.445,-0.285
'25:01.872',-0.400,-0.305
'25:01.875',-0.380,-0.325
'25:01.878',-0.370,-0.350
'25:01.881',-0.380,-0.360
'25:01.883',-0.380,-0.360
'25:01.886',-0.400,-0.350
'25:01.889',-0.410,-0.315
'25:01.892',-0.410,-0.280
'25:01.894',-0.405,-0.265
'25:01.897',-0.380,-0.240
'25:01.900',-0.360,-0.275
'25:01.903',-0.370,-0.320
'25:01.906',-0.365,-0.365
'25:01.908',-0.375,-0.430
'25:01.911',-0.390,-0.445
'25:01.914',-0.410,-0.445
'25:01.917',-0.405,-0.400
'25:01.919',-0.400,-0.360
'25:01.922',-0.380,-0.320
'25:01.925',-0.375,-0.290
'25:01.928',-0.360,-0.290
'25:01.931',-0.330,-0.305
'25:01.933',-0.300,-0.340
'25:01.936',-0.295,-0.375
'25:01.939',-0.290,-0.415
'25:01.942',-0.285,-0.430
'25:01.944',-0.280,-0.410
'25:01.947',-0.255,-0.390
'25:01.950',-0.240,-0.360
'25:01.953',-0.215,-0.335
'25:01.956',-0.220,-0.335
'25:01.958',-0.220,-0.330
'25:01.961',-0.245,-0.330
'25:01.964',-0.275,-0.330
'25:01.967',-0.270,-0.340
'25:01.969',-0.255,-0.335
'25:01.972',-0.235,-0.345
'25:01.975',-0.215,-0.350
'25:01.978',-0.240,-0.360
'25:01.981',-0.275,-0.350
'25:01.983',-0.310,-0.345
'25:01.986',-0.335,-0.330
'25:01.989',-0.345,-0.315
'25:01.992',-0.335,-0.335
'25:01.994',-0.305,-0.340
'25:01.997',-0.275,-0.345
'25:02.000',-0.255,-0.360
'25:02.003',-0.260,-0.370
'25:02.006',-0.270,-0.375
'25:02.008',-0.305,-0.360
'25:02.011',-0.320,-0.360
'25:02.014',-0.325,-0.355
'25:02.017',-0.335,-0.370
'25:02.019',-0.325,-0.370
'25:02.022',-0.310,-0.370
'25:02.025',-0.305,-0.355
'25:02.028',-0.310,-0.355
'25:02.031',-0.330,-0.330
'25:02.033',-0.345,-0.325
'25:02.036',-0.355,-0.325
'25:02.039',-0.370,-0.310
'25:02.042',-0.365,-0.310
'25:02.044',-0.355,-0.310
'25:02.047',-0.350,-0.305
'25:02.050',-0.330,-0.325
'25:02.053',-0.315,-0.335
'25:02.056',-0.310,-0.325
'25:02.058',-0.305,-0.315
'25:02.061',-0.310,-0.315
'25:02.064',-0.310,-0.320
'25:02.067',-0.300,-0.330
'25:02.069',-0.290,-0.340
'25:02.072',-0.280,-0.345
'25:02.075',-0.270,-0.355
'25:02.078',-0.295,-0.355
'25:02.081',-0.305,-0.350
'25:02.083',-0.310,-0.345
'25:02.086',-0.270,-0.315
'25:02.089',-0.220,-0.305
'25:02.092',-0.190,-0.310
'25:02.094',-0.175,-0.325
'25:02.097',-0.200,-0.335
'25:02.100',-0.235,-0.355
'25:02.103',-0.245,-0.350
'25:02.106',-0.210,-0.340
'25:02.108',-0.130,-0.330
'25:02.111',0.010,-0.315
'25:02.114',0.215,-0.305
'25:02.117',0.460,-0.315
'25:02.119',0.725,-0.325
'25:02.122',1.010,-0.360
'25:02.125',1.255,-0.415
'25:02.128',1.480,-0.465
'25:02.131',1.640,-0.545
'25:02.133',1.760,-0.625
'25:02.136',1.860,-0.705
'25:02.139',1.925,-0.795
'25:02.142',1.980,-0.860
'25:02.144',1.985,-0.935
'25:02.147',1.895,-1.010
'25:02.150',1.695,-1.050
'25:02.153',1.360,-1.090
'25:02.156',0.905,-1.115
'25:02.158',0.425,-1.110
'25:02.161',-0.015,-1.065
'25:02.164',-0.340,-1.010
'25:02.167',-0.545,-0.945
'25:02.169',-0.605,-0.880
'25:02.172',-0.600,-0.815
'25:02.175',-0.560,-0.740
'25:02.178',-0.525,-0.700
'25:02.181',-0.500,-0.635
'25:02.183',-0.495,-0.595
'25:02.186',-0.480,-0.550
'25:02.189',-0.485,-0.525
'25:02.192',-0.485,-0.485
'25:02.194',-0.480,-0.455
'25:02.197',-0.490,-0.400
'25:02.200',-0.500,-0.375
'25:02.203',-0.500,-0.350
'25:02.206',-0.490,-0.340
'25:02.208',-0.495,-0.350
'25:02.211',-0.500,-0.330
'25:02.214',-0.490,-0.335
'25:02.217',-0.505,-0.330
'25:02.219',-0.510,-0.320
'25:02.222',-0.525,-0.320
'25:02.225',-0.535,-0.310
'25:02.228',-0.535,-0.335
'25:02.231',-0.535,-0.330
'25:02.233',-0.545,-0.340
'25:02.236',-0.545,-0.335
'25:02.239',-0.555,-0.320
'25:02.242',-0.550,-0.315
'25:02.244',-0.570,-0.305
'25:02.247',-0.555,-0.305
'25:02.250',-0.555,-0.290
'25:02.253',-0.540,-0.285
'25:02.256',-0.530,-0.280
'25:02.258',-0.535,-0.280
'25:02.261',-0.565,-0.280
'25:02.264',-0.590,-0.290
'25:02.267',-0.610,-0.285
'25:02.269',-0.640,-0.305
'25:02.272',-0.655,-0.310
'25:02.275',-0.655,-0.325
'25:02.278',-0.645,-0.315
'25:02.281',-0.625,-0.310
'25:02.283',-0.595,-0.290
'25:02.286',-0.580,-0.265
'25:02.289',-0.585,-0.245
'25:02.292',-0.590,-0.240
'25:02.294',-0.595,-0.245
'25:02.297',-0.620,-0.260
'25:02.300',-0.645,-0.285
'25:02.303',-0.655,-0.305
'25:02.306',-0.680,-0.315
'25:02.308',-0.690,-0.335
'25:02.311',-0.680,-0.320
'25:02.314',-0.660,-0.315
'25:02.317',-0.645,-0.295
'25:02.319',-0.630,-0.290
'25:02.322',-0.650,-0.260
'25:02.325',-0.675,-0.255
'25:02.328',-0.740,-0.260
'25:02.331',-0.770,-0.260
'25:02.333',-0.785,-0.260
'25:02.336',-0.785,-0.270
'25:02.339',-0.780,-0.275
'25:02.342',-0.775,-0.280
'25:02.344',-0.750,-0.285
'25:02.347',-0.735,-0.275
'25:02.350',-0.735,-0.270
'25:02.353',-0.725,-0.265
'25:02.356',-0.715,-0.255
'25:02.358',-0.700,-0.240
'25:02.361',-0.695,-0.245
'25:02.364',-0.675,-0.250
'25:02.367',-0.675,-0.260
'25:02.369',-0.675,-0.260
'25:02.372',-0.695,-0.265
'25:02.375',-0.730,-0.265
'25:02.378',-0.735,-0.260
'25:02.381',-0.735,-0.235
'25:02.383',-0.720,-0.225
'25:02.386',-0.675,-0.215
'25:02.389',-0.655,-0.200
'25:02.392',-0.605,-0.205
'25:02.394',-0.585,-0.215
'25:02.397',-0.580,-0.220
'25:02.400',-0.555,-0.235
'25:02.403',-0.550,-0.230
'25:02.406',-0.540,-0.225
'25:02.408',-0.520,-0.230
'25:02.411',-0.495,-0.245
'25:02.414',-0.475,-0.240
'25:02.417',-0.460,-0.250
'25:02.419',-0.440,-0.235
'25:02.422',-0.410,-0.215
'25:02.425',-0.390,-0.220
'25:02.428',-0.370,-0.220
'25:02.431',-0.360,-0.235
'25:02.433',-0.355,-0.260
'25:02.436',-0.370,-0.275
'25:02.439',-0.370,-0.275
'25:02.442',-0.375,-0.280
'25:02.444',-0.360,-0.285
'25:02.447',-0.355,-0.290
'25:02.450',-0.340,-0.285
'25:02.453',-0.330,-0.295
'25:02.456',-0.315,-0.285
'25:02.458',-0.330,-0.285
'25:02.461',-0.345,-0.295
'25:02.464',-0.345,-0.285
'25:02.467',-0.365,-0.295
'25:02.469',-0.375,-0.285
'25:02.472',-0.390,-0.290
'25:02.475',-0.385,-0.305
'25:02.478',-0.400,-0.295
'25:02.481',-0.390,-0.310
'25:02.483',-0.385,-0.310
'25:02.486',-0.375,-0.310
'25:02.489',-0.370,-0.310
'25:02.492',-0.380,-0.290
'25:02.494',-0.380,-0.300
'25:02.497',-0.385,-0.290
'25:02.500',-0.400,-0.315
'25:02.503',-0.410,-0.320
'25:02.506',-0.415,-0.335
'25:02.508',-0.420,-0.340
'25:02.511',-0.415,-0.335
'25:02.514',-0.420,-0.335
'25:02.517',-0.430,-0.320
'25:02.519',-0.435,-0.300
'25:02.522',-0.455,-0.290
'25:02.525',-0.455,-0.275
'25:02.528',-0.470,-0.270
'25:02.531',-0.470,-0.290
'25:02.533',-0.465,-0.295
'25:02.536',-0.460,-0.320
'25:02.539',-0.455,-0.320
'25:02.542',-0.470,-0.325
'25:02.544',-0.480,-0.320
'25:02.547',-0.475,-0.320
'25:02.550',-0.475,-0.305
'25:02.553',-0.485,-0.285
'25:02.556',-0.485,-0.280
'25:02.558',-0.485,-0.275
'25:02.561',-0.485,-0.280
'25:02.564',-0.505,-0.280
'25:02.567',-0.505,-0.285
'25:02.569',-0.490,-0.290
'25:02.572',-0.480,-0.290
'25:02.575',-0.480,-0.305
'25:02.578',-0.485,-0.315
'25:02.581',-0.495,-0.315
'25:02.583',-0.515,-0.300
'25:02.586',-0.525,-0.295
'25:02.589',-0.535,-0.270
'25:02.592',-0.535,-0.260
'25:02.594',-0.515,-0.255
'25:02.597',-0.500,-0.255
'25:02.600',-0.480,-0.270
'25:02.603',-0.470,-0.275
'25:02.606',-0.470,-0.280
'25:02.608',-0.470,-0.275
'25:02.611',-0.460,-0.275
'25:02.614',-0.475,-0.270
'25:02.617',-0.465,-0.250
'25:02.619',-0.445,-0.240
'25:02.622',-0.415,-0.245
'25:02.625',-0.405,-0.235
'25:02.628',-0.390,-0.225
'25:02.631',-0.380,-0.225
'25:02.633',-0.380,-0.245
'25:02.636',-0.370,-0.250
'25:02.639',-0.370,-0.265
'25:02.642',-0.365,-0.270
'25:02.644',-0.370,-0.280
'25:02.647',-0.350,-0.275
'25:02.650',-0.335,-0.285
'25:02.653',-0.325,-0.295
'25:02.656',-0.335,-0.285
'25:02.658',-0.330,-0.280
'25:02.661',-0.335,-0.305
'25:02.664',-0.360,-0.310
'25:02.667',-0.355,-0.310
'25:02.669',-0.370,-0.305
'25:02.672',-0.385,-0.320
'25:02.675',-0.410,-0.310
'25:02.678',-0.410,-0.300
'25:02.681',-0.425,-0.295
'25:02.683',-0.415,-0.275
'25:02.686',-0.415,-0.260
'25:02.689',-0.440,-0.250
'25:02.692',-0.460,-0.245
'25:02.694',-0.480,-0.250
'25:02.697',-0.485,-0.240
'25:02.700',-0.485,-0.250
'25:02.703',-0.485,-0.255
'25:02.706',-0.465,-0.260
'25:02.708',-0.465,-0.275
'25:02.711',-0.455,-0.275
'25:02.714',-0.485,-0.280
'25:02.717',-0.500,-0.275
'25:02.719',-0.535,-0.260
'25:02.722',-0.535,-0.245
'25:02.725',-0.535,-0.230
'25:02.728',-0.520,-0.230
'25:02.731',-0.510,-0.225
'25:02.733',-0.485,-0.255
'25:02.736',-0.480,-0.290
'25:02.739',-0.475,-0.295
'25:02.742',-0.475,-0.305
'25:02.744',-0.470,-0.295
'25:02.747',-0.465,-0.280
'25:02.750',-0.460,-0.265
'25:02.753',-0.450,-0.255
'25:02.756',-0.435,-0.255
'25:02.758',-0.405,-0.260
'25:02.761',-0.380,-0.265
'25:02.764',-0.345,-0.280
'25:02.767',-0.305,-0.285
'25:02.769',-0.265,-0.280
'25:02.772',-0.190,-0.280
'25:02.775',-0.110,-0.265
'25:02.778',-0.005,-0.260
'25:02.781',0.150,-0.260
'25:02.783',0.335,-0.270
'25:02.786',0.565,-0.295
'25:02.789',0.810,-0.340
'25:02.792',1.045,-0.385
'25:02.794',1.250,-0.455
'25:02.797',1.410,-0.520
'25:02.800',1.565,-0.600
'25:02.803',1.685,-0.680
'25:02.806',1.780,-0.775
'25:02.808',1.855,-0.875
'25:02.811',1.860,-0.980
'25:02.814',1.750,-1.060
'25:02.817',1.485,-1.125
'25:02.819',1.060,-1.160
'25:02.822',0.540,-1.155
'25:02.825',0.005,-1.105
'25:02.828',-0.415,-1.035
'25:02.831',-0.685,-0.955
'25:02.833',-0.790,-0.855
'25:02.836',-0.800,-0.790
'25:02.839',-0.760,-0.715
'25:02.842',-0.705,-0.670
'25:02.844',-0.650,-0.595
'25:02.847',-0.615,-0.550
'25:02.850',-0.605,-0.485
'25:02.853',-0.610,-0.415
'25:02.856',-0.610,-0.365
'25:02.858',-0.625,-0.300
'25:02.861',-0.630,-0.250
'25:02.864',-0.640,-0.235
'25:02.867',-0.655,-0.250
'25:02.869',-0.675,-0.265
'25:02.872',-0.685,-0.295
'25:02.875',-0.705,-0.325
'25:02.878',-0.710,-0.335
'25:02.881',-0.725,-0.325
'25:02.883',-0.725,-0.310
'25:02.886',-0.710,-0.300
'25:02.889',-0.690,-0.275
'25:02.892',-0.690,-0.245
'25:02.894',-0.690,-0.245
'25:02.897',-0.705,-0.215
'25:02.900',-0.715,-0.210
'25:02.903',-0.725,-0.180
'25:02.906',-0.730,-0.185
'25:02.908',-0.745,-0.190
'25:02.911',-0.765,-0.205
'25:02.914',-0.765,-0.225
'25:02.917',-0.765,-0.230
'25:02.919',-0.760,-0.235
'25:02.922',-0.755,-0.250
'25:02.925',-0.760,-0.250
'25:02.928',-0.750,-0.275
'25:02.931',-0.765,-0.295
'25:02.933',-0.765,-0.325
'25:02.936',-0.770,-0.335
'25:02.939',-0.785,-0.330
'25:02.942',-0.785,-0.335
'25:02.944',-0.805,-0.310
'25:02.947',-0.805,-0.295
'25:02.950',-0.810,-0.290
'25:02.953',-0.810,-0.280
'25:02.956',-0.820,-0.260
'25:02.958',-0.810,-0.260
'25:02.961',-0.820,-0.265
'25:02.964',-0.830,-0.265
'25:02.967',-0.835,-0.270
'25:02.969',-0.850,-0.270
'25:02.972',-0.860,-0.275
'25:02.975',-0.860,-0.285
'25:02.978',-0.875,-0.275
'25:02.981',-0.880,-0.270
'25:02.983',-0.880,-0.250
'25:02.986',-0.880,-0.230
'25:02.989',-0.885,-0.200
'25:02.992',-0.885,-0.200
'25:02.994',-0.875,-0.205
'25:02.997',-0.885,-0.210
'25:03.000',-0.895,-0.235
'25:03.003',-0.900,-0.265
'25:03.006',-0.905,-0.285
'25:03.008',-0.900,-0.300
'25:03.011',-0.915,-0.295
'25:03.014',-0.910,-0.280
'25:03.017',-0.925,-0.265
'25:03.019',-0.920,-0.230
'25:03.022',-0.905,-0.185
'25:03.025',-0.900,-0.145
'25:03.028',-0.855,-0.130
'25:03.031',-0.850,-0.150
'25:03.033',-0.835,-0.200
'25:03.036',-0.845,-0.235
'25:03.039',-0.865,-0.260
'25:03.042',-0.860,-0.265
'25:03.044',-0.855,-0.230
'25:03.047',-0.825,-0.190
'25:03.050',-0.800,-0.170
'25:03.053',-0.770,-0.160
'25:03.056',-0.745,-0.170
'25:03.058',-0.720,-0.200
'25:03.061',-0.710,-0.215
'25:03.064',-0.690,-0.230
'25:03.067',-0.670,-0.240
'25:03.069',-0.655,-0.250
'25:03.072',-0.640,-0.255
'25:03.075',-0.625,-0.270
'25:03.078',-0.605,-0.270
'25:03.081',-0.590,-0.255
'25:03.083',-0.565,-0.235
'25:03.086',-0.540,-0.230
'25:03.089',-0.525,-0.235
'25:03.092',-0.515,-0.235
'25:03.094',-0.500,-0.235
'25:03.097',-0.505,-0.240
'25:03.100',-0.520,-0.230
'25:03.103',-0.530,-0.220
'25:03.106',-0.540,-0.215
'25:03.108',-0.545,-0.240
'25:03.111',-0.545,-0.280
'25:03.114',-0.540,-0.315
'25:03.117',-0.525,-0.350
'25:03.119',-0.525,-0.375
'25:03.122',-0.515,-0.390
'25:03.125',-0.510,-0.385
'25:03.128',-0.515,-0.380
'25:03.131',-0.510,-0.375
'25:03.133',-0.525,-0.375
'25:03.136',-0.530,-0.350
'25:03.139',-0.535,-0.360
'25:03.142',-0.540,-0.350
'25:03.144',-0.530,-0.355
'25:03.147',-0.545,-0.355
'25:03.150',-0.510,-0.355
'25:03.153',-0.510,-0.345
'25:03.156',-0.520,-0.335
'25:03.158',-0.520,-0.325
'25:03.161',-0.540,-0.330
'25:03.164',-0.550,-0.330
'25:03.167',-0.565,-0.335
'25:03.169',-0.570,-0.335
'25:03.172',-0.580,-0.350
'25:03.175',-0.565,-0.345
'25:03.178',-0.590,-0.350
'25:03.181',-0.585,-0.340
'25:03.183',-0.570,-0.325
'25:03.186',-0.575,-0.310
'25:03.189',-0.570,-0.270
'25:03.192',-0.555,-0.250
'25:03.194',-0.550,-0.220
'25:03.197',-0.550,-0.210
'25:03.200',-0.555,-0.225
'25:03.203',-0.565,-0.295
'25:03.206',-0.565,-0.375
'25:03.208',-0.565,-0.445
'25:03.211',-0.555,-0.455
'25:03.214',-0.545,-0.435
'25:03.217',-0.525,-0.390
'25:03.219',-0.515,-0.340
'25:03.222',-0.490,-0.295
'25:03.225',-0.485,-0.255
'25:03.228',-0.475,-0.230
'25:03.231',-0.470,-0.215
'25:03.233',-0.450,-0.250
'25:03.236',-0.445,-0.290
'25:03.239',-0.440,-0.340
'25:03.242',-0.425,-0.380
'25:03.244',-0.415,-0.405
'25:03.247',-0.410,-0.405
'25:03.250',-0.405,-0.385
'25:03.253',-0.390,-0.350
'25:03.256',-0.385,-0.330
'25:03.258',-0.375,-0.285
'25:03.261',-0.360,-0.275
'25:03.264',-0.355,-0.280
'25:03.267',-0.350,-0.280
'25:03.269',-0.340,-0.300
'25:03.272',-0.330,-0.310
'25:03.275',-0.310,-0.315
'25:03.278',-0.300,-0.285
'25:03.281',-0.275,-0.255
'25:03.283',-0.260,-0.235
'25:03.286',-0.250,-0.215
'25:03.289',-0.250,-0.225
'25:03.292',-0.250,-0.210
'25:03.294',-0.240,-0.210
'25:03.297',-0.230,-0.200
'25:03.300',-0.210,-0.200
'25:03.303',-0.180,-0.235
'25:03.306',-0.190,-0.310
'25:03.308',-0.200,-0.380
'25:03.311',-0.225,-0.430
'25:03.314',-0.250,-0.440
'25:03.317',-0.270,-0.405
'25:03.319',-0.270,-0.320
'25:03.322',-0.280,-0.250
'25:03.325',-0.275,-0.185
'25:03.328',-0.275,-0.180
'25:03.331',-0.285,-0.235
'25:03.333',-0.300,-0.295
'25:03.336',-0.290,-0.390
'25:03.339',-0.305,-0.465
'25:03.342',-0.330,-0.490
'25:03.344',-0.365,-0.465
'25:03.347',-0.395,-0.440
'25:03.350',-0.415,-0.385
'25:03.353',-0.420,-0.350
'25:03.356',-0.415,-0.325
'25:03.358',-0.390,-0.335
'25:03.361',-0.375,-0.325
'25:03.364',-0.365,-0.315
'25:03.367',-0.355,-0.320
'25:03.369',-0.370,-0.325
'25:03.372',-0.380,-0.360
'25:03.375',-0.390,-0.370
'25:03.378',-0.405,-0.380
'25:03.381',-0.410,-0.380
'25:03.383',-0.420,-0.355
'25:03.386',-0.400,-0.335
'25:03.389',-0.385,-0.335
'25:03.392',-0.375,-0.315
'25:03.394',-0.360,-0.320
'25:03.397',-0.370,-0.340
'25:03.400',-0.350,-0.330
'25:03.403',-0.325,-0.360
'25:03.406',-0.325,-0.355
'25:03.408',-0.295,-0.370
'25:03.411',-0.245,-0.360
'25:03.414',-0.175,-0.360
'25:03.417',-0.085,-0.360
'25:03.419',0.015,-0.345
'25:03.422',0.130,-0.335
'25:03.425',0.280,-0.330
'25:03.428',0.455,-0.335
'25:03.431',0.665,-0.340
'25:03.433',0.895,-0.375
'25:03.436',1.090,-0.420
'25:03.439',1.250,-0.520
'25:03.442',1.360,-0.640
'25:03.444',1.470,-0.760
'25:03.447',1.575,-0.880
'25:03.450',1.625,-0.955
'25:03.453',1.600,-1.020
'25:03.456',1.440,-1.060
'25:03.458',1.140,-1.065
'25:03.461',0.710,-1.075
'25:03.464',0.255,-1.075
'25:03.467',-0.155,-1.080
'25:03.469',-0.445,-1.080
'25:03.472',-0.610,-1.065
'25:03.475',-0.665,-1.030
'25:03.478',-0.655,-0.995
'25:03.481',-0.595,-0.930
'25:03.483',-0.540,-0.840
'25:03.486',-0.495,-0.740
'25:03.489',-0.480,-0.645
'25:03.492',-0.485,-0.575
'25:03.494',-0.490,-0.540
'25:03.497',-0.505,-0.540
'25:03.500',-0.520,-0.540
'25:03.503',-0.530,-0.525
'25:03.506',-0.535,-0.495
'25:03.508',-0.550,-0.475
'25:03.511',-0.540,-0.430
'25:03.514',-0.530,-0.420
'25:03.517',-0.525,-0.385
'25:03.519',-0.530,-0.385
'25:03.522',-0.505,-0.380
'25:03.525',-0.510,-0.375
'25:03.528',-0.525,-0.360
'25:03.531',-0.545,-0.330
'25:03.533',-0.550,-0.330
'25:03.536',-0.570,-0.310
'25:03.539',-0.570,-0.315
'25:03.542',-0.580,-0.350
'25:03.544',-0.590,-0.370
'25:03.547',-0.605,-0.395
'25:03.550',-0.610,-0.400
'25:03.553',-0.595,-0.405
'25:03.556',-0.600,-0.395
'25:03.558',-0.585,-0.375
'25:03.561',-0.575,-0.340
'25:03.564',-0.590,-0.330
'25:03.567',-0.600,-0.300
'25:03.569',-0.600,-0.300
'25:03.572',-0.615,-0.330
'25:03.575',-0.635,-0.365
'25:03.578',-0.635,-0.380
'25:03.581',-0.635,-0.385
'25:03.583',-0.635,-0.380
'25:03.586',-0.640,-0.380
'25:03.589',-0.635,-0.365
'25:03.592',-0.630,-0.350
'25:03.594',-0.630,-0.335
'25:03.597',-0.645,-0.310
'25:03.600',-0.640,-0.295
'25:03.603',-0.655,-0.300
'25:03.606',-0.655,-0.305
'25:03.608',-0.670,-0.310
'25:03.611',-0.690,-0.290
'25:03.614',-0.710,-0.270
'25:03.617',-0.715,-0.295
'25:03.619',-0.715,-0.310
'25:03.622',-0.715,-0.325
'25:03.625',-0.710,-0.310
'25:03.628',-0.700,-0.345
'25:03.631',-0.700,-0.370
'25:03.633',-0.715,-0.430
'25:03.636',-0.715,-0.470
'25:03.639',-0.730,-0.465
'25:03.642',-0.745,-0.450
'25:03.644',-0.755,-0.400
'25:03.647',-0.770,-0.360
'25:03.650',-0.775,-0.340
'25:03.653',-0.775,-0.320
'25:03.656',-0.765,-0.310
'25:03.658',-0.755,-0.295
'25:03.661',-0.745,-0.305
'25:03.664',-0.735,-0.310
'25:03.667',-0.735,-0.325
'25:03.669',-0.725,-0.325
'25:03.672',-0.725,-0.330
'25:03.675',-0.715,-0.325
'25:03.678',-0.715,-0.315
'25:03.681',-0.710,-0.325
'25:03.683',-0.705,-0.300
'25:03.686',-0.690,-0.300
'25:03.689',-0.675,-0.285
'25:03.692',-0.655,-0.280
'25:03.694',-0.630,-0.285
'25:03.697',-0.615,-0.295
'25:03.700',-0.610,-0.295
'25:03.703',-0.605,-0.305
'25:03.706',-0.590,-0.310
'25:03.708',-0.590,-0.310
'25:03.711',-0.580,-0.310
'25:03.714',-0.560,-0.305
'25:03.717',-0.550,-0.305
'25:03.719',-0.510,-0.310
'25:03.722',-0.495,-0.310
'25:03.725',-0.465,-0.295
'25:03.728',-0.430,-0.305
'25:03.731',-0.410,-0.305
'25:03.733',-0.400,-0.330
'25:03.736',-0.410,-0.315
'25:03.739',-0.415,-0.320
'25:03.742',-0.420,-0.305
'25:03.744',-0.440,-0.300
'25:03.747',-0.440,-0.300
'25:03.750',-0.465,-0.320
'25:03.753',-0.470,-0.335
'25:03.756',-0.490,-0.355
'25:03.758',-0.495,-0.370
'25:03.761',-0.490,-0.370
'25:03.764',-0.490,-0.360
'25:03.767',-0.490,-0.350
'25:03.769',-0.485,-0.350
'25:03.772',-0.490,-0.350
'25:03.775',-0.485,-0.365
'25:03.778',-0.485,-0.405
'25:03.781',-0.500,-0.420
'25:03.783',-0.480,-0.430
'25:03.786',-0.475,-0.420
'25:03.789',-0.465,-0.420
'25:03.792',-0.480,-0.395
'25:03.794',-0.470,-0.380
'25:03.797',-0.485,-0.380
'25:03.800',-0.480,-0.390
'25:03.803',-0.500,-0.390
'25:03.806',-0.505,-0.390
'25:03.808',-0.515,-0.400
'25:03.811',-0.515,-0.395
'25:03.814',-0.515,-0.385
'25:03.817',-0.510,-0.385
'25:03.819',-0.505,-0.380
'25:03.822',-0.505,-0.385
'25:03.825',-0.500,-0.375
'25:03.828',-0.495,-0.375
'25:03.831',-0.520,-0.390
'25:03.833',-0.525,-0.385
'25:03.836',-0.520,-0.400
'25:03.839',-0.525,-0.400
'25:03.842',-0.550,-0.400
'25:03.844',-0.555,-0.395
'25:03.847',-0.540,-0.380
'25:03.850',-0.540,-0.385
'25:03.853',-0.540,-0.380
'25:03.856',-0.525,-0.375
'25:03.858',-0.530,-0.360
'25:03.861',-0.530,-0.370
'25:03.864',-0.540,-0.385
'25:03.867',-0.550,-0.390
'25:03.869',-0.550,-0.390
'25:03.872',-0.565,-0.395
'25:03.875',-0.575,-0.395
'25:03.878',-0.575,-0.395
'25:03.881',-0.580,-0.395
'25:03.883',-0.580,-0.380
'25:03.886',-0.570,-0.370
'25:03.889',-0.570,-0.370
'25:03.892',-0.575,-0.370
'25:03.894',-0.550,-0.365
'25:03.897',-0.550,-0.365
'25:03.900',-0.545,-0.380
'25:03.903',-0.550,-0.385
'25:03.906',-0.550,-0.390
'25:03.908',-0.550,-0.400
'25:03.911',-0.565,-0.395
'25:03.914',-0.575,-0.390
'25:03.917',-0.570,-0.360
'25:03.919',-0.565,-0.330
'25:03.922',-0.550,-0.310
'25:03.925',-0.540,-0.290
'25:03.928',-0.520,-0.305
'25:03.931',-0.515,-0.330
'25:03.933',-0.505,-0.355
'25:03.936',-0.510,-0.385
'25:03.939',-0.515,-0.405
'25:03.942',-0.535,-0.400
'25:03.944',-0.525,-0.400
'25:03.947',-0.515,-0.375
'25:03.950',-0.500,-0.360
'25:03.953',-0.475,-0.335
'25:03.956',-0.470,-0.330
'25:03.958',-0.435,-0.330
'25:03.961',-0.425,-0.360
'25:03.964',-0.425,-0.365
'25:03.967',-0.420,-0.370
'25:03.969',-0.410,-0.370
'25:03.972',-0.420,-0.370
'25:03.975',-0.425,-0.385
'25:03.978',-0.440,-0.410
'25:03.981',-0.450,-0.415
'25:03.983',-0.460,-0.465
'25:03.986',-0.465,-0.475
'25:03.989',-0.470,-0.465
'25:03.992',-0.475,-0.445
'25:03.994',-0.480,-0.430
'25:03.997',-0.485,-0.400
'25:04.000',-0.490,-0.405
'25:04.003',-0.510,-0.400
'25:04.006',-0.520,-0.395
'25:04.008',-0.530,-0.390
'25:04.011',-0.560,-0.370
'25:04.014',-0.570,-0.375
'25:04.017',-0.580,-0.355
'25:04.019',-0.565,-0.375
'25:04.022',-0.590,-0.400
'25:04.025',-0.600,-0.400
'25:04.028',-0.600,-0.425
'25:04.031',-0.610,-0.430
'25:04.033',-0.610,-0.420
'25:04.036',-0.605,-0.420
'25:04.039',-0.605,-0.420
'25:04.042',-0.605,-0.415
'25:04.044',-0.595,-0.425
'25:04.047',-0.595,-0.425
'25:04.050',-0.590,-0.405
'25:04.053',-0.580,-0.390
'25:04.056',-0.575,-0.395
'25:04.058',-0.565,-0.390
'25:04.061',-0.565,-0.395
'25:04.064',-0.560,-0.400
'25:04.067',-0.565,-0.405
'25:04.069',-0.530,-0.400
'25:04.072',-0.525,-0.425
'25:04.075',-0.505,-0.420
'25:04.078',-0.470,-0.425
'25:04.081',-0.435,-0.430
'25:04.083',-0.380,-0.415
'25:04.086',-0.310,-0.405
'25:04.089',-0.225,-0.390
'25:04.092',-0.120,-0.385
'25:04.094',-0.010,-0.390
'25:04.097',0.145,-0.380
'25:04.100',0.315,-0.400
'25:04.103',0.515,-0.425
'25:04.106',0.685,-0.470
'25:04.108',0.825,-0.530
'25:04.111',0.950,-0.610
'25:04.114',1.045,-0.665
'25:04.117',1.140,-0.730
'25:04.119',1.250,-0.790
'25:04.122',1.380,-0.845
'25:04.125',1.480,-0.900
'25:04.128',1.475,-0.960
'25:04.131',1.340,-0.985
'25:04.133',1.050,-0.980
'25:04.136',0.645,-0.980
'25:04.139',0.195,-0.960
'25:04.142',-0.225,-0.985
'25:04.144',-0.565,-1.020
'25:04.147',-0.795,-1.060
'25:04.150',-0.890,-1.085
'25:04.153',-0.900,-1.070
'25:04.156',-0.865,-1.040
'25:04.158',-0.805,-0.985
'25:04.161',-0.760,-0.930
'25:04.164',-0.745,-0.870
'25:04.167',-0.755,-0.800
'25:04.169',-0.760,-0.735
'25:04.172',-0.770,-0.700
'25:04.175',-0.770,-0.630
'25:04.178',-0.775,-0.590
'25:04.181',-0.780,-0.525
'25:04.183',-0.770,-0.485
'25:04.186',-0.770,-0.460
'25:04.189',-0.765,-0.425
'25:04.192',-0.765,-0.410
'25:04.194',-0.765,-0.405
'25:04.197',-0.765,-0.410
'25:04.200',-0.780,-0.410
'25:04.203',-0.790,-0.400
'25:04.206',-0.800,-0.400
'25:04.208',-0.800,-0.400
'25:04.211',-0.815,-0.390
'25:04.214',-0.815,-0.390
'25:04.217',-0.815,-0.385
'25:04.219',-0.815,-0.380
'25:04.222',-0.810,-0.370
'25:04.225',-0.810,-0.365
'25:04.228',-0.815,-0.365
'25:04.231',-0.810,-0.370
'25:04.233',-0.835,-0.370
'25:04.236',-0.840,-0.370
'25:04.239',-0.860,-0.365
'25:04.242',-0.850,-0.360
'25:04.244',-0.840,-0.365
'25:04.247',-0.840,-0.345
'25:04.250',-0.850,-0.335
'25:04.253',-0.850,-0.330
'25:04.256',-0.845,-0.325
'25:04.258',-0.860,-0.295
'25:04.261',-0.875,-0.260
'25:04.264',-0.885,-0.250
'25:04.267',-0.870,-0.240
'25:04.269',-0.870,-0.270
'25:04.272',-0.875,-0.320
'25:04.275',-0.905,-0.385
'25:04.278',-0.925,-0.415
'25:04.281',-0.935,-0.425
'25:04.283',-0.960,-0.415
'25:04.286',-0.985,-0.405
'25:04.289',-0.990,-0.370
'25:04.292',-0.980,-0.365
'25:04.294',-0.970,-0.360
'25:04.297',-0.975,-0.365
'25:04.300',-0.960,-0.380
'25:04.303',-0.980,-0.375
'25:04.306',-0.990,-0.380
'25:04.308',-1.010,-0.365
'25:04.311',-1.035,-0.370
'25:04.314',-1.040,-0.355
'25:04.317',-1.045,-0.330
'25:04.319',-1.055,-0.325
'25:04.322',-1.045,-0.315
'25:04.325',-1.035,-0.310
'25:04.328',-1.045,-0.310
'25:04.331',-1.040,-0.300
'25:04.333',-1.030,-0.315
'25:04.336',-1.035,-0.320
'25:04.339',-1.040,-0.325
'25:04.342',-1.050,-0.330
'25:04.344',-1.070,-0.330
'25:04.347',-1.065,-0.310
'25:04.350',-1.060,-0.295
'25:04.353',-1.045,-0.285
'25:04.356',-1.040,-0.265
'25:04.358',-1.045,-0.265
'25:04.361',-1.025,-0.265
'25:04.364',-1.045,-0.270
'25:04.367',-1.040,-0.275
'25:04.369',-1.040,-0.280
'25:04.372',-1.025,-0.280
'25:04.375',-1.005,-0.285
'25:04.378',-1.005,-0.280
'25:04.381',-1.000,-0.265
'25:04.383',-0.980,-0.260
'25:04.386',-0.965,-0.245
'25:04.389',-0.950,-0.240
'25:04.392',-0.945,-0.250
'25:04.394',-0.920,-0.265
'25:04.397',-0.905,-0.270
'25:04.400',-0.890,-0.260
'25:04.403',-0.890,-0.260
'25:04.406',-0.870,-0.250
'25:04.408',-0.855,-0.260
'25:04.411',-0.840,-0.285
'25:04.414',-0.820,-0.330
'25:04.417',-0.800,-0.375
'25:04.419',-0.775,-0.395
'25:04.422',-0.770,-0.385
'25:04.425',-0.760,-0.360
'25:04.428',-0.745,-0.360
'25:04.431',-0.750,-0.340
'25:04.433',-0.745,-0.340
'25:04.436',-0.755,-0.335
'25:04.439',-0.750,-0.365
'25:04.442',-0.750,-0.365
'25:04.444',-0.765,-0.370
'25:04.447',-0.765,-0.365
'25:04.450',-0.765,-0.375
'25:04.453',-0.765,-0.350
'25:04.456',-0.760,-0.360
'25:04.458',-0.750,-0.360
'25:04.461',-0.745,-0.355
'25:04.464',-0.745,-0.365
'25:04.467',-0.745,-0.370
'25:04.469',-0.745,-0.390
'25:04.472',-0.750,-0.390
'25:04.475',-0.765,-0.390
'25:04.478',-0.765,-0.410
'25:04.481',-0.765,-0.400
'25:04.483',-0.765,-0.395
'25:04.486',-0.765,-0.400
'25:04.489',-0.760,-0.395
'25:04.492',-0.760,-0.380
'25:04.494',-0.770,-0.390
'25:04.497',-0.765,-0.395
'25:04.500',-0.765,-0.400
'25:04.503',-0.770,-0.410
'25:04.506',-0.770,-0.410
'25:04.508',-0.775,-0.420
'25:04.511',-0.795,-0.430
'25:04.514',-0.795,-0.420
'25:04.517',-0.790,-0.415
'25:04.519',-0.785,-0.410
'25:04.522',-0.785,-0.400
'25:04.525',-0.780,-0.385
'25:04.528',-0.785,-0.395
'25:04.531',-0.785,-0.390
'25:04.533',-0.780,-0.400
'25:04.536',-0.785,-0.415
'25:04.539',-0.790,-0.430
'25:04.542',-0.810,-0.435
'25:04.544',-0.810,-0.430
'25:04.547',-0.815,-0.445
'25:04.550',-0.820,-0.420
'25:04.553',-0.810,-0.410
'25:04.556',-0.805,-0.405
'25:04.558',-0.800,-0.395
'25:04.561',-0.790,-0.400
'25:04.564',-0.790,-0.410
'25:04.567',-0.800,-0.420
'25:04.569',-0.805,-0.420
'25:04.572',-0.810,-0.430
'25:04.575',-0.815,-0.435
'25:04.578',-0.825,-0.440
'25:04.581',-0.830,-0.430
'25:04.583',-0.825,-0.425
'25:04.586',-0.825,-0.425
'25:04.589',-0.815,-0.415
'25:04.592',-0.805,-0.410
'25:04.594',-0.790,-0.410
'25:04.597',-0.800,-0.420
'25:04.600',-0.795,-0.420
'25:04.603',-0.795,-0.425
'25:04.606',-0.790,-0.440
'25:04.608',-0.800,-0.445
'25:04.611',-0.795,-0.445
'25:04.614',-0.790,-0.445
'25:04.617',-0.775,-0.430
'25:04.619',-0.770,-0.420
'25:04.622',-0.755,-0.420
'25:04.625',-0.745,-0.415
'25:04.628',-0.730,-0.405
'25:04.631',-0.735,-0.405
'25:04.633',-0.730,-0.400
'25:04.636',-0.730,-0.410
'25:04.639',-0.730,-0.410
'25:04.642',-0.730,-0.410
'25:04.644',-0.720,-0.410
'25:04.647',-0.710,-0.410
'25:04.650',-0.705,-0.390
'25:04.653',-0.680,-0.395
'25:04.656',-0.655,-0.400
'25:04.658',-0.625,-0.410
'25:04.661',-0.610,-0.415
'25:04.664',-0.595,-0.445
'25:04.667',-0.595,-0.450
'25:04.669',-0.585,-0.465
'25:04.672',-0.595,-0.485
'25:04.675',-0.590,-0.485
'25:04.678',-0.600,-0.500
'25:04.681',-0.605,-0.505
'25:04.683',-0.615,-0.495
'25:04.686',-0.615,-0.490
'25:04.689',-0.610,-0.470
'25:04.692',-0.615,-0.460
'25:04.694',-0.620,-0.460
'25:04.697',-0.625,-0.465
'25:04.700',-0.655,-0.460
'25:04.703',-0.670,-0.460
'25:04.706',-0.665,-0.455
'25:04.708',-0.690,-0.465
'25:04.711',-0.700,-0.470
'25:04.714',-0.710,-0.460
'25:04.717',-0.710,-0.460
'25:04.719',-0.695,-0.445
'25:04.722',-0.680,-0.440
'25:04.725',-0.675,-0.425
'25:04.728',-0.665,-0.425
'25:04.731',-0.660,-0.435
'25:04.733',-0.660,-0.445
'25:04.736',-0.670,-0.460
'25:04.739',-0.675,-0.465
'25:04.742',-0.675,-0.460
'25:04.744',-0.675,-0.470
'25:04.747',-0.665,-0.465
'25:04.750',-0.660,-0.460
'25:04.753',-0.635,-0.460
'25:04.756',-0.625,-0.460
'25:04.758',-0.610,-0.460
'25:04.761',-0.585,-0.460
'25:04.764',-0.600,-0.455
'25:04.767',-0.585,-0.475
'25:04.769',-0.565,-0.470
'25:04.772',-0.560,-0.485
'25:04.775',-0.530,-0.490
'25:04.778',-0.495,-0.480
'25:04.781',-0.420,-0.480
'25:04.783',-0.345,-0.475
'25:04.786',-0.235,-0.470
'25:04.789',-0.100,-0.475
'25:04.792',0.065,-0.475
'25:04.794',0.260,-0.480
'25:04.797',0.485,-0.490
'25:04.800',0.700,-0.540
'25:04.803',0.900,-0.605
'25:04.806',1.055,-0.665
'25:04.808',1.180,-0.755
'25:04.811',1.280,-0.835
'25:04.814',1.420,-0.905
'25:04.817',1.520,-0.985
'25:04.819',1.595,-1.070
'25:04.822',1.540,-1.145
'25:04.825',1.335,-1.200
'25:04.828',0.985,-1.250
'25:04.831',0.530,-1.285
'25:04.833',0.025,-1.295
'25:04.836',-0.405,-1.260
'25:04.839',-0.715,-1.220
'25:04.842',-0.875,-1.165
'25:04.844',-0.925,-1.070
'25:04.847',-0.895,-1.000
'25:04.850',-0.840,-0.920
'25:04.853',-0.785,-0.845
'25:04.856',-0.730,-0.775
'25:04.858',-0.700,-0.710
'25:04.861',-0.685,-0.655
'25:04.864',-0.670,-0.595
'25:04.867',-0.690,-0.540
'25:04.869',-0.690,-0.510
'25:04.872',-0.730,-0.500
'25:04.875',-0.740,-0.490
'25:04.878',-0.745,-0.490
'25:04.881',-0.750,-0.485
'25:04.883',-0.740,-0.480
'25:04.886',-0.740,-0.460
'25:04.889',-0.730,-0.450
'25:04.892',-0.725,-0.445
'25:04.894',-0.715,-0.445
'25:04.897',-0.725,-0.445
'25:04.900',-0.740,-0.445
'25:04.903',-0.740,-0.450
'25:04.906',-0.765,-0.455
'25:04.908',-0.765,-0.445
'25:04.911',-0.755,-0.455
'25:04.914',-0.760,-0.445
'25:04.917',-0.770,-0.445
'25:04.919',-0.755,-0.435
'25:04.922',-0.755,-0.425
'25:04.925',-0.745,-0.415
'25:04.928',-0.755,-0.420
'25:04.931',-0.755,-0.430
'25:04.933',-0.765,-0.430
'25:04.936',-0.765,-0.435
'25:04.939',-0.780,-0.450
'25:04.942',-0.790,-0.450
'25:04.944',-0.790,-0.440
'25:04.947',-0.805,-0.430
'25:04.950',-0.805,-0.430
'25:04.953',-0.800,-0.420
'25:04.956',-0.800,-0.420
'25:04.958',-0.805,-0.410
'25:04.961',-0.805,-0.410
'25:04.964',-0.800,-0.415
'25:04.967',-0.815,-0.405
'25:04.969',-0.830,-0.430
'25:04.972',-0.830,-0.430
'25:04.975',-0.830,-0.420
'25:04.978',-0.840,-0.425
'25:04.981',-0.850,-0.410
'25:04.983',-0.845,-0.405
'25:04.986',-0.845,-0.400
'25:04.989',-0.845,-0.385
'25:04.992',-0.845,-0.385
'25:04.994',-0.845,-0.385
'25:04.997',-0.840,-0.380
'25:05.000',-0.850,-0.385
'25:05.003',-0.855,-0.390
'25:05.006',-0.855,-0.390
'25:05.008',-0.860,-0.395
'25:05.011',-0.875,-0.395
'25:05.014',-0.870,-0.390
'25:05.017',-0.855,-0.370
'25:05.019',-0.865,-0.370
'25:05.022',-0.855,-0.360
'25:05.025',-0.835,-0.350
'25:05.028',-0.825,-0.340
'25:05.031',-0.805,-0.360
'25:05.033',-0.805,-0.360
'25:05.036',-0.800,-0.350
'25:05.039',-0.795,-0.355
'25:05.042',-0.785,-0.370
'25:05.044',-0.790,-0.370
'25:05.047',-0.775,-0.355
'25:05.050',-0.770,-0.350
'25:05.053',-0.740,-0.340
'25:05.056',-0.710,-0.330
'25:05.058',-0.690,-0.325
'25:05.061',-0.675,-0.335
'25:05.064',-0.660,-0.330
'25:05.067',-0.630,-0.330
'25:05.069',-0.615,-0.340
'25:05.072',-0.600,-0.360
'25:05.075',-0.605,-0.360
'25:05.078',-0.585,-0.370
'25:05.081',-0.570,-0.355
'25:05.083',-0.560,-0.370
'25:05.086',-0.525,-0.355
'25:05.089',-0.515,-0.365
'25:05.092',-0.510,-0.355
'25:05.094',-0.495,-0.365
'25:05.097',-0.505,-0.370
'25:05.100',-0.500,-0.385
'25:05.103',-0.495,-0.400
'25:05.106',-0.495,-0.405
'25:05.108',-0.510,-0.410
'25:05.111',-0.525,-0.420
'25:05.114',-0.515,-0.420
'25:05.117',-0.505,-0.410
'25:05.119',-0.505,-0.415
'25:05.122',-0.500,-0.410
'25:05.125',-0.505,-0.405
'25:05.128',-0.505,-0.400
'25:05.131',-0.505,-0.420
'25:05.133',-0.505,-0.415
'25:05.136',-0.520,-0.430
'25:05.139',-0.520,-0.430
'25:05.142',-0.525,-0.430
'25:05.144',-0.530,-0.430
'25:05.147',-0.530,-0.435
'25:05.150',-0.520,-0.435
'25:05.153',-0.525,-0.420
'25:05.156',-0.520,-0.420
'25:05.158',-0.525,-0.420
'25:05.161',-0.515,-0.420
'25:05.164',-0.515,-0.425
'25:05.167',-0.525,-0.435
'25:05.169',-0.545,-0.430
'25:05.172',-0.550,-0.435
'25:05.175',-0.550,-0.445
'25:05.178',-0.560,-0.460
'25:05.181',-0.555,-0.445
'25:05.183',-0.555,-0.440
'25:05.186',-0.555,-0.430
'25:05.189',-0.555,-0.425
'25:05.192',-0.550,-0.415
'25:05.194',-0.550,-0.420
'25:05.197',-0.545,-0.425
'25:05.200',-0.560,-0.440
'25:05.203',-0.570,-0.435
'25:05.206',-0.565,-0.445
'25:05.208',-0.585,-0.460
'25:05.211',-0.585,-0.440
'25:05.214',-0.585,-0.450
'25:05.217',-0.590,-0.430
'25:05.219',-0.585,-0.430
'25:05.222',-0.585,-0.420
'25:05.225',-0.585,-0.420
'25:05.228',-0.585,-0.415
'25:05.231',-0.595,-0.430
'25:05.233',-0.595,-0.425
'25:05.236',-0.605,-0.425
'25:05.239',-0.600,-0.450
'25:05.242',-0.620,-0.450
'25:05.244',-0.625,-0.445
'25:05.247',-0.610,-0.430
'25:05.250',-0.610,-0.420
'25:05.253',-0.605,-0.410
'25:05.256',-0.610,-0.410
'25:05.258',-0.595,-0.405
'25:05.261',-0.590,-0.390
'25:05.264',-0.585,-0.410
'25:05.267',-0.585,-0.410
'25:05.269',-0.570,-0.415
'25:05.272',-0.575,-0.425
'25:05.275',-0.575,-0.420
'25:05.278',-0.580,-0.420
'25:05.281',-0.570,-0.410
'25:05.283',-0.570,-0.400
'25:05.286',-0.555,-0.380
'25:05.289',-0.535,-0.375
'25:05.292',-0.520,-0.360
'25:05.294',-0.510,-0.355
'25:05.297',-0.500,-0.360
'25:05.300',-0.510,-0.355
'25:05.303',-0.500,-0.355
'25:05.306',-0.505,-0.365
'25:05.308',-0.495,-0.370
'25:05.311',-0.490,-0.390
'25:05.314',-0.470,-0.380
'25:05.317',-0.465,-0.380
'25:05.319',-0.455,-0.400
'25:05.322',-0.430,-0.400
'25:05.325',-0.425,-0.405
'25:05.328',-0.425,-0.420
'25:05.331',-0.430,-0.445
'25:05.333',-0.440,-0.465
'25:05.336',-0.445,-0.470
'25:05.339',-0.460,-0.485
'25:05.342',-0.470,-0.490
'25:05.344',-0.480,-0.485
'25:05.347',-0.500,-0.480
'25:05.350',-0.520,-0.460
'25:05.353',-0.515,-0.440
'25:05.356',-0.525,-0.430
'25:05.358',-0.520,-0.410
'25:05.361',-0.545,-0.420
'25:05.364',-0.535,-0.415
'25:05.367',-0.550,-0.425
'25:05.369',-0.575,-0.430
'25:05.372',-0.595,-0.425
'25:05.375',-0.595,-0.430
'25:05.378',-0.610,-0.435
'25:05.381',-0.615,-0.420
'25:05.383',-0.620,-0.425
'25:05.386',-0.615,-0.410
'25:05.389',-0.605,-0.410
'25:05.392',-0.590,-0.390
'25:05.394',-0.585,-0.410
'25:05.397',-0.585,-0.420
'25:05.400',-0.590,-0.430
'25:05.403',-0.590,-0.420
'25:05.406',-0.595,-0.435
'25:05.408',-0.600,-0.445
'25:05.411',-0.605,-0.435
'25:05.414',-0.605,-0.450
'25:05.417',-0.590,-0.450
'25:05.419',-0.590,-0.440
'25:05.422',-0.580,-0.435
'25:05.425',-0.570,-0.420
'25:05.428',-0.555,-0.425
'25:05.431',-0.540,-0.435
'25:05.433',-0.525,-0.440
'25:05.436',-0.525,-0.445
'25:05.439',-0.505,-0.445
'25:05.442',-0.475,-0.465
'25:05.444',-0.435,-0.470
'25:05.447',-0.360,-0.465
'25:05.450',-0.285,-0.455
'25:05.453',-0.180,-0.465
'25:05.456',-0.060,-0.460
'25:05.458',0.120,-0.470
'25:05.461',0.325,-0.485
'25:05.464',0.550,-0.520
'25:05.467',0.810,-0.585
'25:05.469',1.040,-0.670
'25:05.472',1.250,-0.790
'25:05.475',1.430,-0.900
'25:05.478',1.590,-1.010
'25:05.481',1.695,-1.120
'25:05.483',1.730,-1.235
'25:05.486',1.610,-1.310
'25:05.489',1.300,-1.380
'25:05.492',0.845,-1.415
'25:05.494',0.335,-1.430
'25:05.497',-0.180,-1.405
'25:05.500',-0.580,-1.350
'25:05.503',-0.820,-1.265
'25:05.506',-0.920,-1.180
'25:05.508',-0.930,-1.090
'25:05.511',-0.885,-1.010
'25:05.514',-0.815,-0.935
'25:05.517',-0.770,-0.875
'25:05.519',-0.745,-0.810
'25:05.522',-0.735,-0.755
'25:05.525',-0.740,-0.690
'25:05.528',-0.740,-0.620
'25:05.531',-0.745,-0.560
'25:05.533',-0.765,-0.520
'25:05.536',-0.770,-0.485
'25:05.539',-0.780,-0.485
'25:05.542',-0.780,-0.485
'25:05.544',-0.790,-0.485
'25:05.547',-0.805,-0.470
'25:05.550',-0.810,-0.470
'25:05.553',-0.805,-0.450
'25:05.556',-0.800,-0.430
'25:05.558',-0.805,-0.425
'25:05.561',-0.795,-0.415
'25:05.564',-0.795,-0.415
'25:05.567',-0.800,-0.425
'25:05.569',-0.805,-0.420
'25:05.572',-0.820,-0.440
'25:05.575',-0.830,-0.440
'25:05.578',-0.850,-0.435
'25:05.581',-0.850,-0.420
'25:05.583',-0.845,-0.430
'25:05.586',-0.845,-0.420
'25:05.589',-0.840,-0.420
'25:05.592',-0.830,-0.400
'25:05.594',-0.825,-0.400
'25:05.597',-0.830,-0.410
'25:05.600',-0.825,-0.395
'25:05.603',-0.845,-0.405
'25:05.606',-0.845,-0.420
'25:05.608',-0.855,-0.425
'25:05.611',-0.875,-0.415
'25:05.614',-0.865,-0.410
'25:05.617',-0.865,-0.400
'25:05.619',-0.865,-0.385
'25:05.622',-0.845,-0.380
'25:05.625',-0.845,-0.375
'25:05.628',-0.845,-0.380
'25:05.631',-0.845,-0.395
'25:05.633',-0.850,-0.390
'25:05.636',-0.860,-0.390
'25:05.639',-0.880,-0.405
'25:05.642',-0.890,-0.400
'25:05.644',-0.905,-0.410
'25:05.647',-0.920,-0.400
'25:05.650',-0.910,-0.390
'25:05.653',-0.900,-0.380
'25:05.656',-0.895,-0.365
'25:05.658',-0.895,-0.365
'25:05.661',-0.895,-0.360
'25:05.664',-0.895,-0.365
'25:05.667',-0.905,-0.370
'25:05.669',-0.910,-0.375
'25:05.672',-0.940,-0.385
'25:05.675',-0.935,-0.360
'25:05.678',-0.950,-0.360
'25:05.681',-0.955,-0.345
'25:05.683',-0.945,-0.350
'25:05.686',-0.935,-0.340
'25:05.689',-0.915,-0.320
'25:05.692',-0.915,-0.320
'25:05.694',-0.890,-0.315
'25:05.697',-0.890,-0.315
'25:05.700',-0.885,-0.320
'25:05.703',-0.875,-0.320
'25:05.706',-0.870,-0.320
'25:05.708',-0.865,-0.320
'25:05.711',-0.845,-0.320
'25:05.714',-0.835,-0.295
'25:05.717',-0.815,-0.290
'25:05.719',-0.790,-0.295
'25:05.722',-0.775,-0.280
'25:05.725',-0.750,-0.285
'25:05.728',-0.725,-0.285
'25:05.731',-0.710,-0.295
'25:05.733',-0.690,-0.290
'25:05.736',-0.685,-0.305
'25:05.739',-0.675,-0.310
'25:05.742',-0.665,-0.320
'25:05.744',-0.645,-0.325
'25:05.747',-0.635,-0.320
'25:05.750',-0.615,-0.320
'25:05.753',-0.590,-0.320
'25:05.756',-0.580,-0.310
'25:05.758',-0.560,-0.310
'25:05.761',-0.550,-0.320
'25:05.764',-0.540,-0.325
'25:05.767',-0.540,-0.345
'25:05.769',-0.545,-0.350
'25:05.772',-0.560,-0.370
'25:05.775',-0.560,-0.380
'25:05.778',-0.565,-0.395
'25:05.781',-0.560,-0.380
'25:05.783',-0.560,-0.370
'25:05.786',-0.555,-0.360
'25:05.789',-0.550,-0.355
'25:05.792',-0.545,-0.355
'25:05.794',-0.540,-0.365
'25:05.797',-0.545,-0.370
'25:05.800',-0.550,-0.385
'25:05.803',-0.540,-0.385
'25:05.806',-0.550,-0.395
'25:05.808',-0.560,-0.395
'25:05.811',-0.560,-0.400
'25:05.814',-0.570,-0.385
'25:05.817',-0.565,-0.390
'25:05.819',-0.575,-0.385
'25:05.822',-0.570,-0.390
'25:05.825',-0.565,-0.380
'25:05.828',-0.555,-0.380
'25:05.831',-0.560,-0.385
'25:05.833',-0.565,-0.390
'25:05.836',-0.570,-0.390
'25:05.839',-0.580,-0.415
'25:05.842',-0.590,-0.415
'25:05.844',-0.590,-0.415
'25:05.847',-0.605,-0.405
'25:05.850',-0.610,-0.390
'25:05.853',-0.605,-0.385
'25:05.856',-0.605,-0.390
'25:05.858',-0.615,-0.380
'25:05.861',-0.605,-0.380
'25:05.864',-0.615,-0.400
'25:05.867',-0.610,-0.395
'25:05.869',-0.625,-0.390
'25:05.872',-0.635,-0.395
'25:05.875',-0.640,-0.410
'25:05.878',-0.655,-0.400
'25:05.881',-0.665,-0.395
'25:05.883',-0.655,-0.390
'25:05.886',-0.655,-0.375
'25:05.889',-0.645,-0.365
'25:05.892',-0.650,-0.370
'25:05.894',-0.640,-0.370
'25:05.897',-0.655,-0.370
'25:05.900',-0.665,-0.360
'25:05.903',-0.665,-0.370
'25:05.906',-0.665,-0.370
'25:05.908',-0.680,-0.375
'25:05.911',-0.680,-0.385
'25:05.914',-0.670,-0.370
'25:05.917',-0.675,-0.370
'25:05.919',-0.660,-0.365
'25:05.922',-0.645,-0.340
'25:05.925',-0.615,-0.355
'25:05.928',-0.605,-0.345
'25:05.931',-0.610,-0.350
'25:05.933',-0.605,-0.335
'25:05.936',-0.605,-0.350
'25:05.939',-0.605,-0.350
'25:05.942',-0.600,-0.335
'25:05.944',-0.605,-0.350
'25:05.947',-0.595,-0.340
'25:05.950',-0.575,-0.325
'25:05.953',-0.565,-0.310
'25:05.956',-0.545,-0.305
'25:05.958',-0.530,-0.305
'25:05.961',-0.505,-0.310
'25:05.964',-0.480,-0.325
'25:05.967',-0.470,-0.330
'25:05.969',-0.460,-0.360
'25:05.972',-0.460,-0.385
'25:05.975',-0.465,-0.405
'25:05.978',-0.475,-0.415
'25:05.981',-0.485,-0.415
'25:05.983',-0.485,-0.430
'25:05.986',-0.485,-0.415
'25:05.989',-0.485,-0.410
'25:05.992',-0.490,-0.390
'25:05.994',-0.490,-0.390
'25:05.997',-0.495,-0.380
'25:06.000',-0.530,-0.375
'25:06.003',-0.535,-0.370
'25:06.006',-0.530,-0.365
'25:06.008',-0.530,-0.380
'25:06.011',-0.555,-0.390
'25:06.014',-0.555,-0.355
'25:06.017',-0.565,-0.365
'25:06.019',-0.580,-0.365
'25:06.022',-0.575,-0.345
'25:06.025',-0.570,-0.340
'25:06.028',-0.560,-0.340
'25:06.031',-0.565,-0.350
'25:06.033',-0.550,-0.355
'25:06.036',-0.555,-0.370
'25:06.039',-0.555,-0.375
'25:06.042',-0.560,-0.365
'25:06.044',-0.565,-0.375
'25:06.047',-0.560,-0.375
'25:06.050',-0.570,-0.370
'25:06.053',-0.555,-0.360
'25:06.056',-0.545,-0.365
'25:06.058',-0.535,-0.345
'25:06.061',-0.520,-0.360
'25:06.064',-0.510,-0.365
'25:06.067',-0.500,-0.375
'25:06.069',-0.495,-0.380
'25:06.072',-0.490,-0.400
'25:06.075',-0.470,-0.395
'25:06.078',-0.440,-0.400
'25:06.081',-0.390,-0.385
'25:06.083',-0.315,-0.385
'25:06.086',-0.215,-0.380
'25:06.089',-0.100,-0.375
'25:06.092',0.035,-0.385
'25:06.094',0.245,-0.380
'25:06.097',0.460,-0.400
'25:06.100',0.685,-0.420
'25:06.103',0.885,-0.475
'25:06.106',1.045,-0.540
'25:06.108',1.185,-0.625
'25:06.111',1.265,-0.715
'25:06.114',1.360,-0.785
'25:06.117',1.465,-0.870
'25:06.119',1.560,-0.945
'25:06.122',1.575,-1.015
'25:06.125',1.470,-1.095
'25:06.128',1.225,-1.150
'25:06.131',0.825,-1.200
'25:06.133',0.360,-1.215
'25:06.136',-0.115,-1.235
'25:06.139',-0.495,-1.200
'25:06.142',-0.750,-1.145
'25:06.144',-0.880,-1.080
'25:06.147',-0.895,-0.990
'25:06.150',-0.855,-0.910
'25:06.153',-0.800,-0.835
'25:06.156',-0.735,-0.790
'25:06.158',-0.695,-0.725
'25:06.161',-0.675,-0.685
'25:06.164',-0.655,-0.645
'25:06.167',-0.650,-0.605
'25:06.169',-0.660,-0.555
'25:06.172',-0.660,-0.510
'25:06.175',-0.665,-0.480
'25:06.178',-0.670,-0.445
'25:06.181',-0.660,-0.425
'25:06.183',-0.670,-0.410
'25:06.186',-0.670,-0.395
'25:06.189',-0.670,-0.380
'25:06.192',-0.675,-0.375
'25:06.194',-0.665,-0.370
'25:06.197',-0.660,-0.360
'25:06.200',-0.685,-0.360
'25:06.203',-0.690,-0.375
'25:06.206',-0.690,-0.365
'25:06.208',-0.695,-0.370
'25:06.211',-0.700,-0.370
'25:06.214',-0.695,-0.370
'25:06.217',-0.700,-0.360
'25:06.219',-0.700,-0.350
'25:06.222',-0.705,-0.345
'25:06.225',-0.700,-0.345
'25:06.228',-0.700,-0.315
'25:06.231',-0.720,-0.335
'25:06.233',-0.720,-0.340
'25:06.236',-0.720,-0.345
'25:06.239',-0.715,-0.350
'25:06.242',-0.720,-0.355
'25:06.244',-0.735,-0.365
'25:06.247',-0.740,-0.350
'25:06.250',-0.750,-0.350
'25:06.253',-0.735,-0.340
'25:06.256',-0.735,-0.330
'25:06.258',-0.735,-0.325
'25:06.261',-0.745,-0.330
'25:06.264',-0.750,-0.330
'25:06.267',-0.750,-0.335
'25:06.269',-0.760,-0.350
'25:06.272',-0.760,-0.355
'25:06.275',-0.770,-0.355
'25:06.278',-0.795,-0.355
'25:06.281',-0.800,-0.350
'25:06.283',-0.815,-0.340
'25:06.286',-0.810,-0.335
'25:06.289',-0.805,-0.330
'25:06.292',-0.800,-0.325
'25:06.294',-0.800,-0.320
'25:06.297',-0.800,-0.320
'25:06.300',-0.805,-0.330
'25:06.303',-0.815,-0.330
'25:06.306',-0.830,-0.340
'25:06.308',-0.830,-0.340
'25:06.311',-0.850,-0.340
'25:06.314',-0.855,-0.330
'25:06.317',-0.855,-0.325
'25:06.319',-0.855,-0.310
'25:06.322',-0.850,-0.295
'25:06.325',-0.850,-0.290
'25:06.328',-0.835,-0.285
'25:06.331',-0.850,-0.290
'25:06.333',-0.855,-0.300
'25:06.336',-0.845,-0.305
'25:06.339',-0.855,-0.310
'25:06.342',-0.835,-0.300
'25:06.344',-0.840,-0.315
'25:06.347',-0.850,-0.300
'25:06.350',-0.835,-0.295
'25:06.353',-0.805,-0.270
'25:06.356',-0.795,-0.265
'25:06.358',-0.775,-0.280
'25:06.361',-0.755,-0.260
'25:06.364',-0.750,-0.270
'25:06.367',-0.730,-0.275
'25:06.369',-0.715,-0.270
'25:06.372',-0.720,-0.285
'25:06.375',-0.705,-0.295
'25:06.378',-0.705,-0.295
'25:06.381',-0.685,-0.280
'25:06.383',-0.665,-0.290
'25:06.386',-0.635,-0.280
'25:06.389',-0.625,-0.285
'25:06.392',-0.595,-0.285
'25:06.394',-0.570,-0.275
'25:06.397',-0.555,-0.285
'25:06.400',-0.545,-0.310
'25:06.403',-0.535,-0.310
'25:06.406',-0.535,-0.320
'25:06.408',-0.535,-0.315
'25:06.411',-0.535,-0.340
'25:06.414',-0.520,-0.335
'25:06.417',-0.520,-0.325
'25:06.419',-0.515,-0.335
'25:06.422',-0.515,-0.325
'25:06.425',-0.495,-0.325
'25:06.428',-0.495,-0.325
'25:06.431',-0.495,-0.335
'25:06.433',-0.500,-0.340
'25:06.436',-0.510,-0.360
'25:06.439',-0.525,-0.365
'25:06.442',-0.515,-0.375
'25:06.444',-0.530,-0.375
'25:06.447',-0.535,-0.375
'25:06.450',-0.525,-0.375
'25:06.453',-0.530,-0.370
'25:06.456',-0.530,-0.365
'25:06.458',-0.535,-0.350
'25:06.461',-0.525,-0.350
'25:06.464',-0.520,-0.375
'25:06.467',-0.530,-0.370
'25:06.469',-0.540,-0.380
'25:06.472',-0.555,-0.395
'25:06.475',-0.570,-0.395
'25:06.478',-0.570,-0.395
'25:06.481',-0.565,-0.395
'25:06.483',-0.575,-0.385
'25:06.486',-0.565,-0.385
'25:06.489',-0.565,-0.380
'25:06.492',-0.550,-0.370
'25:06.494',-0.555,-0.365
'25:06.497',-0.555,-0.390
'25:06.500',-0.585,-0.385
'25:06.503',-0.590,-0.395
'25:06.506',-0.590,-0.395
'25:06.508',-0.600,-0.395
'25:06.511',-0.605,-0.395
'25:06.514',-0.610,-0.385
'25:06.517',-0.610,-0.390
'25:06.519',-0.605,-0.385
'25:06.522',-0.605,-0.375
'25:06.525',-0.590,-0.385
'25:06.528',-0.595,-0.365
'25:06.531',-0.585,-0.370
'25:06.533',-0.590,-0.380
'25:06.536',-0.605,-0.395
'25:06.539',-0.615,-0.400
'25:06.542',-0.620,-0.400
'25:06.544',-0.630,-0.405
'25:06.547',-0.630,-0.390
'25:06.550',-0.630,-0.395
'25:06.553',-0.635,-0.370
'25:06.556',-0.625,-0.370
'25:06.558',-0.615,-0.370
'25:06.561',-0.625,-0.355
'25:06.564',-0.615,-0.370
'25:06.567',-0.625,-0.375
'25:06.569',-0.620,-0.385
'25:06.572',-0.620,-0.390
'25:06.575',-0.620,-0.405
'25:06.578',-0.620,-0.400
'25:06.581',-0.635,-0.400
'25:06.583',-0.635,-0.395
'25:06.586',-0.615,-0.385
'25:06.589',-0.605,-0.365
'25:06.592',-0.585,-0.370
'25:06.594',-0.570,-0.375
'25:06.597',-0.565,-0.380
'25:06.600',-0.565,-0.390
'25:06.603',-0.570,-0.385
'25:06.606',-0.570,-0.385
'25:06.608',-0.555,-0.380
'25:06.611',-0.570,-0.390
'25:06.614',-0.555,-0.385
'25:06.617',-0.555,-0.375
'25:06.619',-0.550,-0.365
'25:06.622',-0.535,-0.365
'25:06.625',-0.525,-0.350
'25:06.628',-0.510,-0.350
'25:06.631',-0.490,-0.360
'25:06.633',-0.480,-0.360
'25:06.636',-0.475,-0.385
'25:06.639',-0.465,-0.410
'25:06.642',-0.465,-0.425
'25:06.644',-0.465,-0.430
'25:06.647',-0.480,-0.450
'25:06.650',-0.465,-0.465
'25:06.653',-0.440,-0.460
'25:06.656',-0.450,-0.465
'25:06.658',-0.455,-0.465
'25:06.661',-0.465,-0.465
'25:06.664',-0.470,-0.470
'25:06.667',-0.475,-0.470
'25:06.669',-0.490,-0.465
'25:06.672',-0.520,-0.455
'25:06.675',-0.525,-0.480
'25:06.678',-0.530,-0.460
'25:06.681',-0.540,-0.460
'25:06.683',-0.540,-0.455
'25:06.686',-0.565,-0.430
'25:06.689',-0.575,-0.435
'25:06.692',-0.580,-0.435
'25:06.694',-0.575,-0.425
'25:06.697',-0.565,-0.445
'25:06.700',-0.580,-0.450
'25:06.703',-0.570,-0.455
'25:06.706',-0.580,-0.460
'25:06.708',-0.580,-0.460
'25:06.711',-0.590,-0.475
'25:06.714',-0.585,-0.470
'25:06.717',-0.580,-0.470
'25:06.719',-0.570,-0.455
'25:06.722',-0.560,-0.455
'25:06.725',-0.555,-0.455
'25:06.728',-0.540,-0.450
'25:06.731',-0.535,-0.470
'25:06.733',-0.525,-0.465
'25:06.736',-0.525,-0.480
'25:06.739',-0.525,-0.490
'25:06.742',-0.510,-0.495
'25:06.744',-0.520,-0.510
'25:06.747',-0.505,-0.485
'25:06.750',-0.485,-0.495
'25:06.753',-0.445,-0.490
'25:06.756',-0.405,-0.490
'25:06.758',-0.365,-0.480
'25:06.761',-0.285,-0.485
'25:06.764',-0.205,-0.480
'25:06.767',-0.100,-0.490
'25:06.769',0.000,-0.510
'25:06.772',0.135,-0.520
'25:06.775',0.300,-0.540
'25:06.778',0.485,-0.555
'25:06.781',0.695,-0.565
'25:06.783',0.880,-0.600
'25:06.786',1.030,-0.640
'25:06.789',1.160,-0.710
'25:06.792',1.240,-0.770
'25:06.794',1.325,-0.835
'25:06.797',1.415,-0.920
'25:06.800',1.530,-0.985
'25:06.803',1.605,-1.070
'25:06.806',1.620,-1.155
'25:06.808',1.520,-1.230
'25:06.811',1.275,-1.285
'25:06.814',0.910,-1.310
'25:06.817',0.485,-1.330
'25:06.819',0.030,-1.325
'25:06.822',-0.350,-1.290
'25:06.825',-0.610,-1.230
'25:06.828',-0.770,-1.180
'25:06.831',-0.815,-1.095
'25:06.833',-0.805,-1.035
'25:06.836',-0.760,-0.980
'25:06.839',-0.715,-0.925
'25:06.842',-0.670,-0.870
'25:06.844',-0.670,-0.835
'25:06.847',-0.655,-0.775
'25:06.850',-0.645,-0.720
'25:06.853',-0.650,-0.645
'25:06.856',-0.630,-0.600
'25:06.858',-0.630,-0.555
'25:06.861',-0.625,-0.530
'25:06.864',-0.630,-0.530
'25:06.867',-0.630,-0.530
'25:06.869',-0.640,-0.550
'25:06.872',-0.640,-0.545
'25:06.875',-0.640,-0.555
'25:06.878',-0.640,-0.545
'25:06.881',-0.640,-0.530
'25:06.883',-0.650,-0.530
'25:06.886',-0.635,-0.520
'25:06.889',-0.620,-0.505
'25:06.892',-0.615,-0.505
'25:06.894',-0.600,-0.490
'25:06.897',-0.590,-0.500
'25:06.900',-0.600,-0.505
'25:06.903',-0.600,-0.520
'25:06.906',-0.595,-0.520
'25:06.908',-0.605,-0.530
'25:06.911',-0.610,-0.525
'25:06.914',-0.595,-0.515
'25:06.917',-0.600,-0.520
'25:06.919',-0.590,-0.510
'25:06.922',-0.590,-0.505
'25:06.925',-0.590,-0.490
'25:06.928',-0.585,-0.485
'25:06.931',-0.580,-0.500
'25:06.933',-0.595,-0.500
'25:06.936',-0.585,-0.520
'25:06.939',-0.595,-0.515
'25:06.942',-0.595,-0.515
'25:06.944',-0.615,-0.515
'25:06.947',-0.610,-0.505
'25:06.950',-0.610,-0.510
'25:06.953',-0.620,-0.485
'25:06.956',-0.600,-0.490
'25:06.958',-0.605,-0.480
'25:06.961',-0.605,-0.480
'25:06.964',-0.605,-0.485
'25:06.967',-0.615,-0.485
'25:06.969',-0.630,-0.500
'25:06.972',-0.630,-0.500
'25:06.975',-0.635,-0.510
'25:06.978',-0.650,-0.500
'25:06.981',-0.645,-0.505
'25:06.983',-0.650,-0.490
'25:06.986',-0.650,-0.485
'25:06.989',-0.645,-0.475
'25:06.992',-0.660,-0.480
'25:06.994',-0.670,-0.455
'25:06.997',-0.665,-0.465
'25:07.000',-0.665,-0.470
'25:07.003',-0.665,-0.490
'25:07.006',-0.675,-0.470
'25:07.008',-0.675,-0.480
'25:07.011',-0.690,-0.485
'25:07.014',-0.680,-0.475
'25:07.017',-0.685,-0.460
'25:07.019',-0.670,-0.470
'25:07.022',-0.665,-0.450
'25:07.025',-0.655,-0.435
'25:07.028',-0.640,-0.435
'25:07.031',-0.640,-0.435
'25:07.033',-0.650,-0.445
'25:07.036',-0.640,-0.440
'25:07.039',-0.645,-0.445
'25:07.042',-0.635,-0.450
'25:07.044',-0.635,-0.450
'25:07.047',-0.615,-0.430
'25:07.050',-0.605,-0.440
'25:07.053',-0.590,-0.415
'25:07.056',-0.570,-0.410
'25:07.058',-0.560,-0.400
'25:07.061',-0.540,-0.400
'25:07.064',-0.520,-0.410
'25:07.067',-0.510,-0.430
'25:07.069',-0.490,-0.430
'25:07.072',-0.490,-0.430
'25:07.075',-0.485,-0.440
'25:07.078',-0.465,-0.450
'25:07.081',-0.465,-0.430
'25:07.083',-0.435,-0.425
'25:07.086',-0.415,-0.430
'25:07.089',-0.385,-0.425
'25:07.092',-0.380,-0.425
'25:07.094',-0.360,-0.430
'25:07.097',-0.355,-0.445
'25:07.100',-0.355,-0.455
'25:07.103',-0.350,-0.460
'25:07.106',-0.350,-0.480
'25:07.108',-0.355,-0.480
'25:07.111',-0.365,-0.495
'25:07.114',-0.355,-0.495
'25:07.117',-0.365,-0.490
'25:07.119',-0.360,-0.485
'25:07.122',-0.355,-0.490
'25:07.125',-0.360,-0.480
'25:07.128',-0.355,-0.475
'25:07.131',-0.360,-0.490
'25:07.133',-0.350,-0.500
'25:07.136',-0.360,-0.510
'25:07.139',-0.360,-0.505
'25:07.142',-0.370,-0.520
'25:07.144',-0.380,-0.515
'25:07.147',-0.380,-0.515
'25:07.150',-0.380,-0.510
'25:07.153',-0.375,-0.495
'25:07.156',-0.375,-0.495
'25:07.158',-0.380,-0.495
'25:07.161',-0.375,-0.495
'25:07.164',-0.370,-0.510
'25:07.167',-0.385,-0.505
'25:07.169',-0.400,-0.520
'25:07.172',-0.410,-0.515
'25:07.175',-0.405,-0.525
'25:07.178',-0.415,-0.515
'25:07.181',-0.410,-0.520
'25:07.183',-0.425,-0.510
'25:07.186',-0.420,-0.505
'25:07.189',-0.410,-0.505
'25:07.192',-0.415,-0.495
'25:07.194',-0.405,-0.485
'25:07.197',-0.405,-0.500
'25:07.200',-0.420,-0.500
'25:07.203',-0.440,-0.505
'25:07.206',-0.445,-0.515
'25:07.208',-0.445,-0.510
'25:07.211',-0.450,-0.515
'25:07.214',-0.475,-0.520
'25:07.217',-0.465,-0.500
'25:07.219',-0.470,-0.505
'25:07.222',-0.485,-0.510
'25:07.225',-0.465,-0.485
'25:07.228',-0.465,-0.485
'25:07.231',-0.465,-0.490
'25:07.233',-0.465,-0.490
'25:07.236',-0.470,-0.490
'25:07.239',-0.485,-0.500
'25:07.242',-0.490,-0.510
'25:07.244',-0.505,-0.510
'25:07.247',-0.500,-0.500
'25:07.250',-0.505,-0.485
'25:07.253',-0.510,-0.480
'25:07.256',-0.505,-0.470
'25:07.258',-0.485,-0.470
'25:07.261',-0.490,-0.455
'25:07.264',-0.500,-0.465
'25:07.267',-0.495,-0.460
'25:07.269',-0.510,-0.475
'25:07.272',-0.500,-0.475
'25:07.275',-0.500,-0.480
'25:07.278',-0.485,-0.480
'25:07.281',-0.495,-0.470
'25:07.283',-0.485,-0.455
'25:07.286',-0.465,-0.455
'25:07.289',-0.460,-0.445
'25:07.292',-0.445,-0.430
'25:07.294',-0.435,-0.420
'25:07.297',-0.425,-0.425
'25:07.300',-0.425,-0.425
'25:07.303',-0.425,-0.430
'25:07.306',-0.430,-0.430
'25:07.308',-0.435,-0.440
'25:07.311',-0.430,-0.440
'25:07.314',-0.420,-0.430
'25:07.317',-0.410,-0.430
'25:07.319',-0.410,-0.425
'25:07.322',-0.400,-0.435
'25:07.325',-0.395,-0.440
'25:07.328',-0.405,-0.460
'25:07.331',-0.395,-0.490
'25:07.333',-0.405,-0.490
'25:07.336',-0.425,-0.515
'25:07.339',-0.440,-0.530
'25:07.342',-0.450,-0.530
'25:07.344',-0.470,-0.510
'25:07.347',-0.485,-0.490
'25:07.350',-0.500,-0.465
'25:07.353',-0.500,-0.445
'25:07.356',-0.520,-0.425
'25:07.358',-0.520,-0.430
'25:07.361',-0.510,-0.425
'25:07.364',-0.520,-0.435
'25:07.367',-0.510,-0.430
'25:07.369',-0.515,-0.440
'25:07.372',-0.525,-0.445
'25:07.375',-0.520,-0.455
'25:07.378',-0.525,-0.455
'25:07.381',-0.525,-0.455
'25:07.383',-0.510,-0.445
'25:07.386',-0.510,-0.445
'25:07.389',-0.490,-0.435
'25:07.392',-0.465,-0.430
'25:07.394',-0.440,-0.440
'25:07.397',-0.405,-0.445
'25:07.400',-0.365,-0.440
'25:07.403',-0.305,-0.445
'25:07.406',-0.240,-0.460
'25:07.408',-0.150,-0.465
'25:07.411',-0.025,-0.460
'25:07.414',0.135,-0.475
'25:07.417',0.335,-0.485
'25:07.419',0.565,-0.505
'25:07.422',0.800,-0.545
'25:07.425',1.030,-0.610
'25:07.428',1.220,-0.710
'25:07.431',1.390,-0.820
'25:07.433',1.540,-0.925
'25:07.436',1.655,-1.045
'25:07.439',1.690,-1.175
'25:07.442',1.575,-1.270
'25:07.444',1.295,-1.345
'25:07.447',0.835,-1.380
'25:07.450',0.275,-1.370
'25:07.453',-0.250,-1.330
'25:07.456',-0.635,-1.230
'25:07.458',-0.845,-1.120
'25:07.461',-0.905,-1.020
'25:07.464',-0.885,-0.930
'25:07.467',-0.805,-0.845
'25:07.469',-0.730,-0.780
'25:07.472',-0.680,-0.745
'25:07.475',-0.650,-0.690
'25:07.478',-0.655,-0.630
'25:07.481',-0.670,-0.550
'25:07.483',-0.700,-0.495
'25:07.486',-0.705,-0.450
'25:07.489',-0.720,-0.430
'25:07.492',-0.730,-0.425
'25:07.494',-0.725,-0.405
'25:07.497',-0.720,-0.415
'25:07.500',-0.720,-0.415
'25:07.503',-0.740,-0.415
'25:07.506',-0.745,-0.415
'25:07.508',-0.740,-0.410
'25:07.511',-0.760,-0.410
'25:07.514',-0.770,-0.405
'25:07.517',-0.775,-0.400
'25:07.519',-0.780,-0.380
'25:07.522',-0.770,-0.390
'25:07.525',-0.765,-0.375
'25:07.528',-0.770,-0.370
'25:07.531',-0.760,-0.375
'25:07.533',-0.765,-0.375
'25:07.536',-0.780,-0.375
'25:07.539',-0.780,-0.380
'25:07.542',-0.800,-0.380
'25:07.544',-0.810,-0.390
'25:07.547',-0.815,-0.380
'25:07.550',-0.805,-0.370
'25:07.553',-0.815,-0.360
'25:07.556',-0.815,-0.350
'25:07.558',-0.815,-0.350
'25:07.561',-0.805,-0.345
'25:07.564',-0.830,-0.350
'25:07.567',-0.830,-0.360
'25:07.569',-0.830,-0.360
'25:07.572',-0.845,-0.365
'25:07.575',-0.860,-0.360
'25:07.578',-0.855,-0.370
'25:07.581',-0.875,-0.355
'25:07.583',-0.870,-0.365
'25:07.586',-0.870,-0.355
'25:07.589',-0.875,-0.335
'25:07.592',-0.875,-0.335
'25:07.594',-0.875,-0.325
'25:07.597',-0.885,-0.335
'25:07.600',-0.905,-0.335
'25:07.603',-0.910,-0.345
'25:07.606',-0.920,-0.350
'25:07.608',-0.940,-0.345
'25:07.611',-0.940,-0.350
'25:07.614',-0.950,-0.340
'25:07.617',-0.960,-0.325
'25:07.619',-0.955,-0.325
'25:07.622',-0.965,-0.320
'25:07.625',-0.945,-0.310
'25:07.628',-0.950,-0.300
'25:07.631',-0.945,-0.310
'25:07.633',-0.955,-0.305
'25:07.636',-0.960,-0.320
'25:07.639',-0.975,-0.320
'25:07.642',-0.980,-0.305
'25:07.644',-0.980,-0.315
'25:07.647',-0.975,-0.305
'25:07.650',-0.965,-0.300
'25:07.653',-0.950,-0.290
'25:07.656',-0.960,-0.275
'25:07.658',-0.945,-0.265
'25:07.661',-0.935,-0.250
'25:07.664',-0.920,-0.260
'25:07.667',-0.915,-0.260
'25:07.669',-0.910,-0.270
'25:07.672',-0.890,-0.270
'25:07.675',-0.910,-0.265
'25:07.678',-0.890,-0.275
'25:07.681',-0.870,-0.270
'25:07.683',-0.865,-0.275
'25:07.686',-0.840,-0.270
'25:07.689',-0.820,-0.250
'25:07.692',-0.805,-0.255
'25:07.694',-0.780,-0.255
'25:07.697',-0.760,-0.250
'25:07.700',-0.750,-0.260
'25:07.703',-0.730,-0.285
'25:07.706',-0.725,-0.285
'25:07.708',-0.720,-0.300
'25:07.711',-0.700,-0.300
'25:07.714',-0.685,-0.305
'25:07.717',-0.675,-0.300
'25:07.719',-0.660,-0.300
'25:07.722',-0.655,-0.295
'25:07.725',-0.635,-0.300
'25:07.728',-0.640,-0.300
'25:07.731',-0.635,-0.315
'25:07.733',-0.635,-0.325
'25:07.736',-0.640,-0.335
'25:07.739',-0.645,-0.335
'25:07.742',-0.645,-0.340
'25:07.744',-0.670,-0.350
'25:07.747',-0.650,-0.360
'25:07.750',-0.660,-0.340
'25:07.753',-0.655,-0.340
'25:07.756',-0.660,-0.340
'25:07.758',-0.645,-0.335
'25:07.761',-0.635,-0.335
'25:07.764',-0.640,-0.355
'25:07.767',-0.645,-0.350
'25:07.769',-0.660,-0.355
'25:07.772',-0.660,-0.380
'25:07.775',-0.665,-0.385
'25:07.778',-0.680,-0.395
'25:07.781',-0.685,-0.375
'25:07.783',-0.680,-0.370
'25:07.786',-0.675,-0.365
'25:07.789',-0.685,-0.365
'25:07.792',-0.680,-0.355
'25:07.794',-0.670,-0.360
'25:07.797',-0.675,-0.365
'25:07.800',-0.670,-0.370
'25:07.803',-0.695,-0.385
'25:07.806',-0.690,-0.390
'25:07.808',-0.690,-0.390
'25:07.811',-0.705,-0.400
'25:07.814',-0.715,-0.390
'25:07.817',-0.715,-0.385
'25:07.819',-0.715,-0.375
'25:07.822',-0.710,-0.365
'25:07.825',-0.710,-0.370
'25:07.828',-0.705,-0.360
'25:07.831',-0.715,-0.365
'25:07.833',-0.715,-0.375
'25:07.836',-0.725,-0.380
'25:07.839',-0.735,-0.385
'25:07.842',-0.745,-0.395
'25:07.844',-0.750,-0.385
'25:07.847',-0.765,-0.375
'25:07.850',-0.765,-0.370
'25:07.853',-0.765,-0.380
'25:07.856',-0.770,-0.360
'25:07.858',-0.775,-0.360
'25:07.861',-0.765,-0.355
'25:07.864',-0.770,-0.365
'25:07.867',-0.770,-0.365
'25:07.869',-0.780,-0.375
'25:07.872',-0.785,-0.370
'25:07.875',-0.795,-0.375
'25:07.878',-0.800,-0.385
'25:07.881',-0.795,-0.375
'25:07.883',-0.795,-0.355
'25:07.886',-0.790,-0.350
'25:07.889',-0.780,-0.355
'25:07.892',-0.775,-0.335
'25:07.894',-0.770,-0.340
'25:07.897',-0.775,-0.350
'25:07.900',-0.775,-0.345
'25:07.903',-0.770,-0.360
'25:07.906',-0.785,-0.360
'25:07.908',-0.785,-0.370
'25:07.911',-0.790,-0.370
'25:07.914',-0.780,-0.370
'25:07.917',-0.780,-0.370
'25:07.919',-0.770,-0.355
'25:07.922',-0.755,-0.340
'25:07.925',-0.765,-0.335
'25:07.928',-0.755,-0.340
'25:07.931',-0.745,-0.340
'25:07.933',-0.735,-0.345
'25:07.936',-0.745,-0.350
'25:07.939',-0.735,-0.355
'25:07.942',-0.735,-0.365
'25:07.944',-0.740,-0.365
'25:07.947',-0.740,-0.350
'25:07.950',-0.735,-0.345
'25:07.953',-0.725,-0.340
'25:07.956',-0.710,-0.330
'25:07.958',-0.700,-0.320
'25:07.961',-0.690,-0.315
'25:07.964',-0.680,-0.330
'25:07.967',-0.680,-0.310
'25:07.969',-0.680,-0.315
'25:07.972',-0.685,-0.315
'25:07.975',-0.685,-0.325
'25:07.978',-0.690,-0.315
'25:07.981',-0.685,-0.305
'25:07.983',-0.670,-0.300
'25:07.986',-0.655,-0.280
'25:07.989',-0.645,-0.295
'25:07.992',-0.630,-0.280
'25:07.994',-0.610,-0.290
'25:07.997',-0.595,-0.315
'25:08.000',-0.585,-0.330
'25:08.003',-0.590,-0.335
'25:08.006',-0.605,-0.370
'25:08.008',-0.615,-0.375
'25:08.011',-0.620,-0.405
'25:08.014',-0.615,-0.405
'25:08.017',-0.625,-0.420
'25:08.019',-0.625,-0.415
'25:08.022',-0.625,-0.410
'25:08.025',-0.640,-0.395
'25:08.028',-0.635,-0.390
'25:08.031',-0.650,-0.380
'25:08.033',-0.655,-0.380
'25:08.036',-0.675,-0.370
'25:08.039',-0.695,-0.375
'25:08.042',-0.705,-0.385
'25:08.044',-0.725,-0.380
'25:08.047',-0.740,-0.385
'25:08.050',-0.750,-0.360
'25:08.053',-0.740,-0.350
'25:08.056',-0.750,-0.345
'25:08.058',-0.770,-0.335
'25:08.061',-0.760,-0.340
'25:08.064',-0.755,-0.340
'25:08.067',-0.780,-0.355
'25:08.069',-0.755,-0.350
'25:08.072',-0.765,-0.365
'25:08.075',-0.770,-0.365
'25:08.078',-0.780,-0.375
'25:08.081',-0.785,-0.360
'25:08.083',-0.775,-0.375
'25:08.086',-0.770,-0.355
'25:08.089',-0.760,-0.350
'25:08.092',-0.765,-0.355
'25:08.094',-0.745,-0.345
'25:08.097',-0.740,-0.360
'25:08.100',-0.735,-0.355
'25:08.103',-0.730,-0.370
'25:08.106',-0.725,-0.375
'25:08.108',-0.725,-0.395
'25:08.111',-0.700,-0.395
'25:08.114',-0.690,-0.380
'25:08.117',-0.650,-0.385
'25:08.119',-0.595,-0.380
'25:08.122',-0.505,-0.370
'25:08.125',-0.400,-0.370
'25:08.128',-0.270,-0.375
'25:08.131',-0.110,-0.385
'25:08.133',0.070,-0.410
'25:08.136',0.285,-0.465
'25:08.139',0.500,-0.500
'25:08.142',0.720,-0.590
'25:08.144',0.910,-0.675
'25:08.147',1.065,-0.775
'25:08.150',1.220,-0.875
'25:08.153',1.370,-0.970
'25:08.156',1.500,-1.055
'25:08.158',1.560,-1.150
'25:08.161',1.520,-1.250
'25:08.164',1.305,-1.335
'25:08.167',0.925,-1.390
'25:08.169',0.440,-1.410
'25:08.172',-0.080,-1.410
'25:08.175',-0.520,-1.360
'25:08.178',-0.845,-1.280
'25:08.181',-1.010,-1.170
'25:08.183',-1.055,-1.075
'25:08.186',-1.025,-0.970
'25:08.189',-0.975,-0.900
'25:08.192',-0.915,-0.820
'25:08.194',-0.875,-0.755
'25:08.197',-0.870,-0.705
'25:08.200',-0.870,-0.650
'25:08.203',-0.870,-0.590
'25:08.206',-0.870,-0.530
'25:08.208',-0.895,-0.490
'25:08.211',-0.900,-0.450
'25:08.214',-0.920,-0.410
'25:08.217',-0.940,-0.400
'25:08.219',-0.935,-0.380
'25:08.222',-0.920,-0.380
'25:08.225',-0.925,-0.360
'25:08.228',-0.895,-0.350
'25:08.231',-0.910,-0.355
'25:08.233',-0.910,-0.360
'25:08.236',-0.915,-0.360
'25:08.239',-0.930,-0.360
'25:08.242',-0.935,-0.355
'25:08.244',-0.940,-0.360
'25:08.247',-0.945,-0.345
'25:08.250',-0.955,-0.335
'25:08.253',-0.955,-0.325
'25:08.256',-0.960,-0.310
'25:08.258',-0.955,-0.315
'25:08.261',-0.945,-0.305
'25:08.264',-0.940,-0.315
'25:08.267',-0.955,-0.325
'25:08.269',-0.955,-0.315
'25:08.272',-0.960,-0.330
'25:08.275',-0.975,-0.335
'25:08.278',-0.975,-0.335
'25:08.281',-0.980,-0.325
'25:08.283',-0.985,-0.315
'25:08.286',-0.980,-0.310
'25:08.289',-0.980,-0.300
'25:08.292',-0.995,-0.295
'25:08.294',-0.975,-0.290
'25:08.297',-0.990,-0.300
'25:08.300',-0.995,-0.310
'25:08.303',-1.000,-0.310
'25:08.306',-1.010,-0.315
'25:08.308',-1.025,-0.315
'25:08.311',-1.020,-0.315
'25:08.314',-1.035,-0.300
'25:08.317',-1.030,-0.305
'25:08.319',-1.045,-0.295
'25:08.322',-1.040,-0.290
'25:08.325',-1.040,-0.285
'25:08.328',-1.050,-0.275
'25:08.331',-1.055,-0.290
'25:08.333',-1.060,-0.275
'25:08.336',-1.065,-0.290
'25:08.339',-1.075,-0.290
'25:08.342',-1.095,-0.290
'25:08.344',-1.110,-0.285
'25:08.347',-1.105,-0.275
'25:08.350',-1.110,-0.270
'25:08.353',-1.120,-0.265
'25:08.356',-1.110,-0.260
'25:08.358',-1.105,-0.250
'25:08.361',-1.095,-0.250
'25:08.364',-1.090,-0.245
'25:08.367',-1.095,-0.250
'25:08.369',-1.100,-0.250
'25:08.372',-1.100,-0.260
'25:08.375',-1.105,-0.265
'25:08.378',-1.110,-0.260
'25:08.381',-1.110,-0.255
'25:08.383',-1.100,-0.235
'25:08.386',-1.080,-0.225
'25:08.389',-1.075,-0.220
'25:08.392',-1.065,-0.210
'25:08.394',-1.045,-0.210
'25:08.397',-1.035,-0.195
'25:08.400',-1.020,-0.205
'25:08.403',-1.000,-0.210
'25:08.406',-1.005,-0.220
'25:08.408',-0.990,-0.220
'25:08.411',-0.995,-0.225
'25:08.414',-0.980,-0.205
'25:08.417',-0.970,-0.220
'25:08.419',-0.945,-0.205
'25:08.422',-0.925,-0.205
'25:08.425',-0.910,-0.200
'25:08.428',-0.890,-0.210
'25:08.431',-0.855,-0.215
'25:08.433',-0.845,-0.220
'25:08.436',-0.830,-0.235
'25:08.439',-0.825,-0.225
'25:08.442',-0.810,-0.240
'25:08.444',-0.795,-0.250
'25:08.447',-0.790,-0.245
'25:08.450',-0.775,-0.245
'25:08.453',-0.775,-0.250
'25:08.456',-0.760,-0.235
'25:08.458',-0.745,-0.240
'25:08.461',-0.740,-0.240
'25:08.464',-0.735,-0.250
'25:08.467',-0.730,-0.255
'25:08.469',-0.745,-0.275
'25:08.472',-0.735,-0.285
'25:08.475',-0.740,-0.290
'25:08.478',-0.745,-0.295
'25:08.481',-0.750,-0.295
'25:08.483',-0.745,-0.300
'25:08.486',-0.750,-0.290
'25:08.489',-0.745,-0.295
'25:08.492',-0.750,-0.285
'25:08.494',-0.730,-0.290
'25:08.497',-0.735,-0.290
'25:08.500',-0.735,-0.300
'25:08.503',-0.750,-0.315
'25:08.506',-0.755,-0.315
'25:08.508',-0.765,-0.320
'25:08.511',-0.775,-0.335
'25:08.514',-0.775,-0.320
'25:08.517',-0.780,-0.330
'25:08.519',-0.780,-0.325
'25:08.522',-0.765,-0.310
'25:08.525',-0.765,-0.305
'25:08.528',-0.745,-0.305
'25:08.531',-0.765,-0.305
'25:08.533',-0.775,-0.315
'25:08.536',-0.765,-0.335
'25:08.539',-0.780,-0.320
'25:08.542',-0.785,-0.335
'25:08.544',-0.795,-0.330
'25:08.547',-0.795,-0.335
'25:08.550',-0.805,-0.330
'25:08.553',-0.795,-0.320
'25:08.556',-0.800,-0.310
'25:08.558',-0.800,-0.310
'25:08.561',-0.795,-0.305
'25:08.564',-0.795,-0.315
'25:08.567',-0.785,-0.315
'25:08.569',-0.800,-0.310
'25:08.572',-0.810,-0.320
'25:08.575',-0.820,-0.330
'25:08.578',-0.815,-0.325
'25:08.581',-0.820,-0.320
'25:08.583',-0.825,-0.315
'25:08.586',-0.825,-0.310
'25:08.589',-0.825,-0.295
'25:08.592',-0.820,-0.290
'25:08.594',-0.815,-0.290
'25:08.597',-0.820,-0.290
'25:08.600',-0.820,-0.295
'25:08.603',-0.845,-0.300
'25:08.606',-0.840,-0.300
'25:08.608',-0.840,-0.305
'25:08.611',-0.845,-0.310
'25:08.614',-0.865,-0.300
'25:08.617',-0.850,-0.300
'25:08.619',-0.840,-0.295
'25:08.622',-0.845,-0.295
'25:08.625',-0.830,-0.275
'25:08.628',-0.820,-0.265
'25:08.631',-0.830,-0.285
'25:08.633',-0.830,-0.270
'25:08.636',-0.815,-0.290
'25:08.639',-0.810,-0.290
'25:08.642',-0.820,-0.295
'25:08.644',-0.810,-0.300
'25:08.647',-0.805,-0.295
'25:08.650',-0.790,-0.290
'25:08.653',-0.770,-0.285
'25:08.656',-0.765,-0.270
'25:08.658',-0.755,-0.265
'25:08.661',-0.750,-0.245
'25:08.664',-0.745,-0.250
'25:08.667',-0.735,-0.250
'25:08.669',-0.745,-0.250
'25:08.672',-0.755,-0.255
'25:08.675',-0.755,-0.260
'25:08.678',-0.750,-0.255
'25:08.681',-0.740,-0.245
'25:08.683',-0.715,-0.235
'25:08.686',-0.695,-0.235
'25:08.689',-0.690,-0.240
'25:08.692',-0.675,-0.225
'25:08.694',-0.660,-0.240
'25:08.697',-0.645,-0.255
'25:08.700',-0.640,-0.285
'25:08.703',-0.635,-0.300
'25:08.706',-0.635,-0.320
'25:08.708',-0.660,-0.355
'25:08.711',-0.655,-0.365
'25:08.714',-0.670,-0.360
'25:08.717',-0.675,-0.355
'25:08.719',-0.670,-0.350
'25:08.722',-0.685,-0.320
'25:08.725',-0.685,-0.305
'25:08.728',-0.695,-0.300
'25:08.731',-0.705,-0.290
'25:08.733',-0.720,-0.300
'25:08.736',-0.740,-0.300
'25:08.739',-0.760,-0.310
'25:08.742',-0.770,-0.305
'25:08.744',-0.815,-0.305
'25:08.747',-0.815,-0.305
'25:08.750',-0.820,-0.295
'25:08.753',-0.820,-0.290
'25:08.756',-0.815,-0.280
'25:08.758',-0.800,-0.275
'25:08.761',-0.785,-0.270
'25:08.764',-0.785,-0.285
'25:08.767',-0.780,-0.275
'25:08.769',-0.785,-0.295
'25:08.772',-0.805,-0.305
'25:08.775',-0.810,-0.300
'25:08.778',-0.795,-0.315
'25:08.781',-0.800,-0.305
'25:08.783',-0.795,-0.315
'25:08.786',-0.785,-0.310
'25:08.789',-0.780,-0.300
'25:08.792',-0.765,-0.280
'25:08.794',-0.755,-0.285
'25:08.797',-0.750,-0.290
'25:08.800',-0.735,-0.295
'25:08.803',-0.730,-0.305
'25:08.806',-0.720,-0.305
'25:08.808',-0.690,-0.325
'25:08.811',-0.660,-0.320
'25:08.814',-0.615,-0.320
'25:08.817',-0.555,-0.315
'25:08.819',-0.465,-0.320
'25:08.822',-0.350,-0.305
'25:08.825',-0.240,-0.300
'25:08.828',-0.100,-0.305
'25:08.831',0.080,-0.320
'25:08.833',0.270,-0.340
'25:08.836',0.475,-0.380
'25:08.839',0.665,-0.430
'25:08.842',0.805,-0.505
'25:08.844',0.915,-0.580
'25:08.847',1.025,-0.660
'25:08.850',1.125,-0.745
'25:08.853',1.240,-0.830
'25:08.856',1.345,-0.900
'25:08.858',1.345,-0.980
'25:08.861',1.210,-1.040
'25:08.864',0.935,-1.105
'25:08.867',0.540,-1.150
'25:08.869',0.070,-1.190
'25:08.872',-0.360,-1.175
'25:08.875',-0.725,-1.150
'25:08.878',-0.975,-1.110
'25:08.881',-1.105,-1.025
'25:08.883',-1.135,-0.935
'25:08.886',-1.095,-0.860
'25:08.889',-1.045,-0.780
'25:08.892',-1.005,-0.720
'25:08.894',-0.950,-0.650
'25:08.897',-0.935,-0.600
'25:08.900',-0.920,-0.560
'25:08.903',-0.905,-0.515
'25:08.906',-0.905,-0.455
'25:08.908',-0.905,-0.415
'25:08.911',-0.915,-0.380
'25:08.914',-0.925,-0.345
'25:08.917',-0.930,-0.330
'25:08.919',-0.935,-0.320
'25:08.922',-0.950,-0.325
'25:08.925',-0.950,-0.295
'25:08.928',-0.940,-0.290
'25:08.931',-0.955,-0.295
'25:08.933',-0.950,-0.285
'25:08.936',-0.955,-0.300
'25:08.939',-0.950,-0.300
'25:08.942',-0.965,-0.295
'25:08.944',-0.960,-0.295
'25:08.947',-0.970,-0.295
'25:08.950',-0.980,-0.290
'25:08.953',-0.975,-0.280
'25:08.956',-0.975,-0.265
'25:08.958',-0.980,-0.265
'25:08.961',-0.980,-0.255
'25:08.964',-0.975,-0.265
'25:08.967',-0.980,-0.260
'25:08.969',-0.980,-0.275
'25:08.972',-0.985,-0.280
'25:08.975',-1.000,-0.290
'25:08.978',-1.015,-0.285
'25:08.981',-1.025,-0.290
'25:08.983',-1.035,-0.285
'25:08.986',-1.030,-0.280
'25:08.989',-1.020,-0.270
'25:08.992',-1.015,-0.255
'25:08.994',-1.000,-0.250
'25:08.997',-1.020,-0.255
'25:09.000',-1.035,-0.260
'25:09.003',-1.045,-0.270
'25:09.006',-1.055,-0.265
'25:09.008',-1.060,-0.285
'25:09.011',-1.055,-0.280
'25:09.014',-1.060,-0.275
'25:09.017',-1.070,-0.270
'25:09.019',-1.075,-0.260
'25:09.022',-1.060,-0.255
'25:09.025',-1.065,-0.245
'25:09.028',-1.070,-0.240
'25:09.031',-1.085,-0.235
'25:09.033',-1.100,-0.250
'25:09.036',-1.095,-0.245
'25:09.039',-1.110,-0.255
'25:09.042',-1.110,-0.260
'25:09.044',-1.120,-0.260
'25:09.047',-1.135,-0.255
'25:09.050',-1.140,-0.245
'25:09.053',-1.125,-0.235
'25:09.056',-1.130,-0.230
'25:09.058',-1.120,-0.215
'25:09.061',-1.100,-0.205
'25:09.064',-1.095,-0.210
'25:09.067',-1.105,-0.215
'25:09.069',-1.100,-0.220
'25:09.072',-1.090,-0.225
'25:09.075',-1.090,-0.220
'25:09.078',-1.080,-0.220
'25:09.081',-1.075,-0.215
'25:09.083',-1.060,-0.225
'25:09.086',-1.050,-0.210
'25:09.089',-1.040,-0.200
'25:09.092',-1.025,-0.180
'25:09.094',-1.005,-0.170
'25:09.097',-0.980,-0.180
'25:09.100',-0.980,-0.185
'25:09.103',-0.950,-0.205
'25:09.106',-0.935,-0.210
'25:09.108',-0.925,-0.220
'25:09.111',-0.925,-0.235
'25:09.114',-0.905,-0.220
'25:09.117',-0.880,-0.210
'25:09.119',-0.850,-0.210
'25:09.122',-0.820,-0.215
'25:09.125',-0.805,-0.200
'25:09.128',-0.775,-0.205
'25:09.131',-0.765,-0.220
'25:09.133',-0.760,-0.230
'25:09.136',-0.750,-0.240
'25:09.139',-0.750,-0.250
'25:09.142',-0.745,-0.260
'25:09.144',-0.750,-0.270
'25:09.147',-0.760,-0.260
'25:09.150',-0.770,-0.275
'25:09.153',-0.765,-0.275
'25:09.156',-0.755,-0.265
'25:09.158',-0.760,-0.260
'25:09.161',-0.750,-0.265
'25:09.164',-0.755,-0.270
'25:09.167',-0.760,-0.280
'25:09.169',-0.770,-0.290
'25:09.172',-0.770,-0.285
'25:09.175',-0.775,-0.300
'25:09.178',-0.775,-0.295
'25:09.181',-0.790,-0.300
'25:09.183',-0.790,-0.290
'25:09.186',-0.785,-0.295
'25:09.189',-0.780,-0.270
'25:09.192',-0.780,-0.280
'25:09.194',-0.780,-0.275
'25:09.197',-0.780,-0.285
'25:09.200',-0.785,-0.300
'25:09.203',-0.790,-0.300
'25:09.206',-0.800,-0.305
'25:09.208',-0.815,-0.305
'25:09.211',-0.825,-0.310
'25:09.214',-0.835,-0.305
'25:09.217',-0.830,-0.295
'25:09.219',-0.835,-0.295
'25:09.222',-0.830,-0.285
'25:09.225',-0.835,-0.275
'25:09.228',-0.825,-0.275
'25:09.231',-0.825,-0.285
'25:09.233',-0.830,-0.285
'25:09.236',-0.825,-0.285
'25:09.239',-0.840,-0.300
'25:09.242',-0.855,-0.310
'25:09.244',-0.855,-0.300
'25:09.247',-0.855,-0.300
'25:09.250',-0.870,-0.295
'25:09.253',-0.855,-0.285
'25:09.256',-0.845,-0.295
'25:09.258',-0.845,-0.285
'25:09.261',-0.840,-0.280
'25:09.264',-0.845,-0.280
'25:09.267',-0.855,-0.275
'25:09.269',-0.860,-0.290
'25:09.272',-0.875,-0.295
'25:09.275',-0.880,-0.300
'25:09.278',-0.885,-0.300
'25:09.281',-0.890,-0.295
'25:09.283',-0.885,-0.285
'25:09.286',-0.870,-0.285
'25:09.289',-0.855,-0.255
'25:09.292',-0.850,-0.260
'25:09.294',-0.840,-0.270
'25:09.297',-0.840,-0.270
'25:09.300',-0.835,-0.285
'25:09.303',-0.840,-0.285
'25:09.306',-0.845,-0.285
'25:09.308',-0.845,-0.290
'25:09.311',-0.850,-0.285
'25:09.314',-0.845,-0.285
'25:09.317',-0.825,-0.275
'25:09.319',-0.810,-0.280
'25:09.322',-0.795,-0.270
'25:09.325',-0.790,-0.265
'25:09.328',-0.780,-0.250
'25:09.331',-0.770,-0.255
'25:09.333',-0.775,-0.255
'25:09.336',-0.765,-0.250
'25:09.339',-0.765,-0.260
'25:09.342',-0.755,-0.260
'25:09.344',-0.755,-0.265
'25:09.347',-0.750,-0.250
'25:09.350',-0.735,-0.245
'25:09.353',-0.725,-0.230
'25:09.356',-0.705,-0.230
'25:09.358',-0.680,-0.230
'25:09.361',-0.670,-0.230
'25:09.364',-0.660,-0.260
'25:09.367',-0.655,-0.260
'25:09.369',-0.655,-0.295
'25:09.372',-0.645,-0.305
'25:09.375',-0.650,-0.325
'25:09.378',-0.655,-0.335
'25:09.381',-0.665,-0.345
'25:09.383',-0.670,-0.350
'25:09.386',-0.675,-0.355
'25:09.389',-0.680,-0.335
'25:09.392',-0.680,-0.325
'25:09.394',-0.685,-0.300
'25:09.397',-0.690,-0.305
'25:09.400',-0.720,-0.295
'25:09.403',-0.735,-0.305
'25:09.406',-0.740,-0.320
'25:09.408',-0.755,-0.320
'25:09.411',-0.780,-0.325
'25:09.414',-0.790,-0.320
'25:09.417',-0.790,-0.315
'25:09.419',-0.805,-0.310
'25:09.422',-0.800,-0.305
'25:09.425',-0.800,-0.305
'25:09.428',-0.790,-0.305
'25:09.431',-0.780,-0.310
'25:09.433',-0.765,-0.320
'25:09.436',-0.745,-0.340
'25:09.439',-0.730,-0.350
'25:09.442',-0.695,-0.385
'25:09.444',-0.670,-0.400
'25:09.447',-0.640,-0.395
'25:09.450',-0.600,-0.420
'25:09.453',-0.545,-0.440
'25:09.456',-0.490,-0.445
'25:09.458',-0.410,-0.470
'25:09.461',-0.300,-0.485
'25:09.464',-0.210,-0.530
'25:09.467',-0.085,-0.570
'25:09.469',0.065,-0.630
'25:09.472',0.230,-0.675
'25:09.475',0.430,-0.735
'25:09.478',0.660,-0.775
'25:09.481',0.895,-0.810
'25:09.483',1.145,-0.820
'25:09.486',1.375,-0.815
'25:09.489',1.595,-0.770
'25:09.492',1.750,-0.695
'25:09.494',1.850,-0.600
'25:09.497',1.885,-0.500
'25:09.500',1.880,-0.375
'25:09.503',1.830,-0.265
'25:09.506',1.765,-0.165
'25:09.508',1.665,-0.065
'25:09.511',1.505,0.005
'25:09.514',1.295,0.065
'25:09.517',1.015,0.085
'25:09.519',0.675,0.085
'25:09.522',0.305,0.040
'25:09.525',-0.020,-0.025
'25:09.528',-0.335,-0.080
'25:09.531',-0.565,-0.150
'25:09.533',-0.735,-0.215
'25:09.536',-0.840,-0.275
'25:09.539',-0.890,-0.330
'25:09.542',-0.910,-0.345
'25:09.544',-0.920,-0.365
'25:09.547',-0.935,-0.350
'25:09.550',-0.930,-0.350
'25:09.553',-0.950,-0.340
'25:09.556',-0.960,-0.350
'25:09.558',-0.985,-0.340
'25:09.561',-0.990,-0.335
'25:09.564',-1.005,-0.350
'25:09.567',-1.015,-0.350
'25:09.569',-1.030,-0.360
'25:09.572',-1.045,-0.375
'25:09.575',-1.055,-0.390
'25:09.578',-1.075,-0.405
'25:09.581',-1.090,-0.400
'25:09.583',-1.085,-0.385
'25:09.586',-1.095,-0.380
'25:09.589',-1.095,-0.365
'25:09.592',-1.095,-0.365
'25:09.594',-1.095,-0.360
'25:09.597',-1.105,-0.365
'25:09.600',-1.110,-0.365
'25:09.603',-1.115,-0.380
'25:09.606',-1.140,-0.390
'25:09.608',-1.155,-0.390
'25:09.611',-1.170,-0.395
'25:09.614',-1.170,-0.385
'25:09.617',-1.190,-0.390
'25:09.619',-1.175,-0.385
'25:09.622',-1.180,-0.375
'25:09.625',-1.190,-0.365
'25:09.628',-1.190,-0.370
'25:09.631',-1.190,-0.390
'25:09.633',-1.200,-0.380
'25:09.636',-1.210,-0.390
'25:09.639',-1.225,-0.390
'25:09.642',-1.250,-0.395
'25:09.644',-1.265,-0.410
'25:09.647',-1.270,-0.415
'25:09.650',-1.290,-0.405
'25:09.653',-1.295,-0.385
'25:09.656',-1.310,-0.380
'25:09.658',-1.320,-0.380
'25:09.661',-1.320,-0.370
'25:09.664',-1.320,-0.385
'25:09.667',-1.345,-0.375
'25:09.669',-1.370,-0.385
'25:09.672',-1.390,-0.395
'25:09.675',-1.395,-0.395
'25:09.678',-1.425,-0.410
'25:09.681',-1.440,-0.400
'25:09.683',-1.460,-0.390
'25:09.686',-1.480,-0.390
'25:09.689',-1.495,-0.375
'25:09.692',-1.505,-0.385
'25:09.694',-1.520,-0.375
'25:09.697',-1.530,-0.385
'25:09.700',-1.560,-0.390
'25:09.703',-1.590,-0.410
'25:09.706',-1.600,-0.410
'25:09.708',-1.625,-0.430
'25:09.711',-1.650,-0.445
'25:09.714',-1.655,-0.445
'25:09.717',-1.660,-0.450
'25:09.719',-1.670,-0.445
'25:09.722',-1.670,-0.435
'25:09.725',-1.665,-0.430
'25:09.728',-1.660,-0.435
'25:09.731',-1.655,-0.450
'25:09.733',-1.650,-0.465
'25:09.736',-1.630,-0.495
'25:09.739',-1.635,-0.495
'25:09.742',-1.625,-0.515
'25:09.744',-1.600,-0.515
'25:09.747',-1.580,-0.515
'25:09.750',-1.550,-0.520
'25:09.753',-1.510,-0.515
'25:09.756',-1.480,-0.505
'25:09.758',-1.435,-0.520
'25:09.761',-1.395,-0.510
'25:09.764',-1.350,-0.525
'25:09.767',-1.320,-0.530
'25:09.769',-1.295,-0.535
'25:09.772',-1.265,-0.540
'25:09.775',-1.240,-0.550
'25:09.778',-1.205,-0.550
'25:09.781',-1.170,-0.545
'25:09.783',-1.135,-0.550
'25:09.786',-1.095,-0.530
'25:09.789',-1.055,-0.520
'25:09.792',-1.020,-0.510
'25:09.794',-0.985,-0.505
'25:09.797',-0.950,-0.500
'25:09.800',-0.935,-0.510
'25:09.803',-0.925,-0.505
'25:09.806',-0.900,-0.515
'25:09.808',-0.895,-0.520
'25:09.811',-0.890,-0.515
'25:09.814',-0.885,-0.500
'25:09.817',-0.855,-0.485
'25:09.819',-0.855,-0.480
'25:09.822',-0.825,-0.460
'25:09.825',-0.820,-0.445
'25:09.828',-0.800,-0.440
'25:09.831',-0.785,-0.445
'25:09.833',-0.800,-0.440
'25:09.836',-0.800,-0.440
'25:09.839',-0.800,-0.450
'25:09.842',-0.800,-0.440
'25:09.844',-0.820,-0.440
'25:09.847',-0.810,-0.440
'25:09.850',-0.815,-0.440
'25:09.853',-0.805,-0.435
'25:09.856',-0.790,-0.420
'25:09.858',-0.800,-0.410
'25:09.861',-0.790,-0.405
'25:09.864',-0.790,-0.410
'25:09.867',-0.790,-0.405
'25:09.869',-0.800,-0.410
'25:09.872',-0.810,-0.415
'25:09.875',-0.810,-0.410
'25:09.878',-0.825,-0.425
'25:09.881',-0.840,-0.415
'25:09.883',-0.840,-0.415
'25:09.886',-0.835,-0.400
'25:09.889',-0.835,-0.395
'25:09.892',-0.845,-0.385
'25:09.894',-0.840,-0.380
'25:09.897',-0.840,-0.380
'25:09.900',-0.865,-0.400
'25:09.903',-0.860,-0.395
'25:09.906',-0.865,-0.400
'25:09.908',-0.890,-0.415
'25:09.911',-0.895,-0.410
'25:09.914',-0.915,-0.410
'25:09.917',-0.895,-0.405
'25:09.919',-0.895,-0.395
'25:09.922',-0.905,-0.385
'25:09.925',-0.895,-0.385
'25:09.928',-0.890,-0.375
'25:09.931',-0.890,-0.390
'25:09.933',-0.890,-0.385
'25:09.936',-0.905,-0.395
'25:09.939',-0.895,-0.390
'25:09.942',-0.900,-0.410
'25:09.944',-0.895,-0.415
'25:09.947',-0.895,-0.410
'25:09.950',-0.895,-0.400
'25:09.953',-0.885,-0.390
'25:09.956',-0.870,-0.395
'25:09.958',-0.860,-0.390
'25:09.961',-0.840,-0.380
'25:09.964',-0.840,-0.380
'25:09.967',-0.835,-0.385
'25:09.969',-0.835,-0.390
'25:09.972',-0.840,-0.395
'25:09.975',-0.840,-0.410
'25:09.978',-0.845,-0.400
'25:09.981',-0.845,-0.390
'25:09.983',-0.845,-0.385
'25:09.986',-0.840,-0.375
'25:09.989',-0.810,-0.375
'25:09.992',-0.790,-0.365
'25:09.994',-0.770,-0.355
'25:09.997',-0.775,-0.360
'25:10.000',-0.765,-0.355
'25:10.003',-0.775,-0.365
'25:10.006',-0.770,-0.380
'25:10.008',-0.770,-0.370
'25:10.011',-0.770,-0.370
'25:10.014',-0.770,-0.345
'25:10.017',-0.765,-0.350
'25:10.019',-0.755,-0.320
'25:10.022',-0.740,-0.325
'25:10.025',-0.745,-0.315
'25:10.028',-0.725,-0.295
'25:10.031',-0.705,-0.300
'25:10.033',-0.700,-0.295
'25:10.036',-0.685,-0.310
'25:10.039',-0.690,-0.315
'25:10.042',-0.675,-0.335
'25:10.044',-0.670,-0.345
'25:10.047',-0.660,-0.345
'25:10.050',-0.645,-0.360
'25:10.053',-0.650,-0.360
'25:10.056',-0.650,-0.375
'25:10.058',-0.640,-0.370
'25:10.061',-0.640,-0.380
'25:10.064',-0.635,-0.395
'25:10.067',-0.645,-0.390
'25:10.069',-0.650,-0.415
'25:10.072',-0.665,-0.410
'25:10.075',-0.680,-0.405
'25:10.078',-0.700,-0.400
'25:10.081',-0.710,-0.390
'25:10.083',-0.715,-0.375
'25:10.086',-0.720,-0.365
'25:10.089',-0.735,-0.350
'25:10.092',-0.735,-0.340
'25:10.094',-0.745,-0.330
'25:10.097',-0.745,-0.340
'25:10.100',-0.770,-0.330
'25:10.103',-0.800,-0.340
'25:10.106',-0.815,-0.340
'25:10.108',-0.835,-0.335
'25:10.111',-0.835,-0.350
'25:10.114',-0.840,-0.345
'25:10.117',-0.835,-0.345
'25:10.119',-0.825,-0.330
'25:10.122',-0.825,-0.335
'25:10.125',-0.810,-0.320
'25:10.128',-0.795,-0.330
'25:10.131',-0.790,-0.320
'25:10.133',-0.790,-0.325
'25:10.136',-0.800,-0.330
'25:10.139',-0.805,-0.345
'25:10.142',-0.810,-0.350
'25:10.144',-0.810,-0.360
'25:10.147',-0.810,-0.350
'25:10.150',-0.795,-0.340
'25:10.153',-0.785,-0.335
'25:10.156',-0.760,-0.335
'25:10.158',-0.720,-0.335
'25:10.161',-0.675,-0.335
'25:10.164',-0.610,-0.345
'25:10.167',-0.535,-0.350
'25:10.169',-0.450,-0.345
'25:10.172',-0.350,-0.360
'25:10.175',-0.215,-0.370
'25:10.178',-0.045,-0.380
'25:10.181',0.160,-0.395
'25:10.183',0.415,-0.425
'25:10.186',0.645,-0.485
'25:10.189',0.865,-0.550
'25:10.192',1.030,-0.630
'25:10.194',1.200,-0.725
'25:10.197',1.355,-0.840
'25:10.200',1.505,-0.940
'25:10.203',1.590,-1.050
'25:10.206',1.565,-1.140
'25:10.208',1.345,-1.230
'25:10.211',0.980,-1.285
'25:10.214',0.445,-1.320
'25:10.217',-0.105,-1.300
'25:10.219',-0.595,-1.230
'25:10.222',-0.940,-1.175
'25:10.225',-1.115,-1.065
'25:10.228',-1.165,-0.980
'25:10.231',-1.140,-0.900
'25:10.233',-1.065,-0.830
'25:10.236',-1.015,-0.770
'25:10.239',-0.975,-0.720
'25:10.242',-0.960,-0.670
'25:10.244',-0.970,-0.630
'25:10.247',-0.960,-0.555
'25:10.250',-0.980,-0.490
'25:10.253',-0.975,-0.430
'25:10.256',-0.990,-0.400
'25:10.258',-0.990,-0.360
'25:10.261',-0.970,-0.345
'25:10.264',-0.980,-0.340
'25:10.267',-0.985,-0.345
'25:10.269',-1.000,-0.350
'25:10.272',-1.005,-0.340
'25:10.275',-1.015,-0.340
'25:10.278',-1.035,-0.350
'25:10.281',-1.025,-0.330
'25:10.283',-1.040,-0.320
'25:10.286',-1.045,-0.315
'25:10.289',-1.035,-0.305
'25:10.292',-1.035,-0.295
'25:10.294',-1.035,-0.285
'25:10.297',-1.025,-0.280
'25:10.300',-1.025,-0.280
'25:10.303',-1.040,-0.295
'25:10.306',-1.045,-0.300
'25:10.308',-1.055,-0.300
'25:10.311',-1.080,-0.305
'25:10.314',-1.085,-0.300
'25:10.317',-1.075,-0.295
'25:10.319',-1.080,-0.290
'25:10.322',-1.070,-0.275
'25:10.325',-1.075,-0.270
'25:10.328',-1.075,-0.265
'25:10.331',-1.070,-0.270
'25:10.333',-1.085,-0.270
'25:10.336',-1.085,-0.280
'25:10.339',-1.105,-0.285
'25:10.342',-1.110,-0.285
'25:10.344',-1.125,-0.290
'25:10.347',-1.115,-0.285
'25:10.350',-1.125,-0.280
'25:10.353',-1.140,-0.265
'25:10.356',-1.135,-0.260
'25:10.358',-1.135,-0.255
'25:10.361',-1.140,-0.250
'25:10.364',-1.140,-0.250
'25:10.367',-1.150,-0.255
'25:10.369',-1.145,-0.255
'25:10.372',-1.170,-0.265
'25:10.375',-1.170,-0.265
'25:10.378',-1.195,-0.270
'25:10.381',-1.200,-0.260
'25:10.383',-1.205,-0.270
'25:10.386',-1.205,-0.245
'25:10.389',-1.205,-0.235
'25:10.392',-1.205,-0.230
'25:10.394',-1.190,-0.220
'25:10.397',-1.205,-0.230
'25:10.400',-1.205,-0.225
'25:10.403',-1.215,-0.225
'25:10.406',-1.210,-0.240
'25:10.408',-1.225,-0.230
'25:10.411',-1.225,-0.230
'25:10.414',-1.225,-0.225
'25:10.417',-1.220,-0.220
'25:10.419',-1.215,-0.210
'25:10.422',-1.205,-0.200
'25:10.425',-1.195,-0.195
'25:10.428',-1.180,-0.185
'25:10.431',-1.170,-0.185
'25:10.433',-1.160,-0.180
'25:10.436',-1.155,-0.180
'25:10.439',-1.150,-0.190
'25:10.442',-1.150,-0.190
'25:10.444',-1.135,-0.205
'25:10.447',-1.130,-0.200
'25:10.450',-1.130,-0.190
'25:10.453',-1.120,-0.180
'25:10.456',-1.095,-0.165
'25:10.458',-1.070,-0.160
'25:10.461',-1.050,-0.155
'25:10.464',-1.025,-0.165
'25:10.467',-1.015,-0.165
'25:10.469',-1.000,-0.180
'25:10.472',-0.990,-0.195
'25:10.475',-0.975,-0.190
'25:10.478',-0.970,-0.195
'25:10.481',-0.945,-0.200
'25:10.483',-0.930,-0.185
'25:10.486',-0.915,-0.190
'25:10.489',-0.895,-0.190
'25:10.492',-0.875,-0.190
'25:10.494',-0.850,-0.190
'25:10.497',-0.845,-0.190
'25:10.500',-0.835,-0.215
'25:10.503',-0.835,-0.225
'25:10.506',-0.845,-0.240
'25:10.508',-0.840,-0.255
'25:10.511',-0.845,-0.260
'25:10.514',-0.850,-0.265
'25:10.517',-0.850,-0.275
'25:10.519',-0.850,-0.270
'25:10.522',-0.850,-0.275
'25:10.525',-0.845,-0.260
'25:10.528',-0.835,-0.260
'25:10.531',-0.835,-0.270
'25:10.533',-0.830,-0.275
'25:10.536',-0.850,-0.280
'25:10.539',-0.850,-0.295
'25:10.542',-0.865,-0.310
'25:10.544',-0.875,-0.310
'25:10.547',-0.890,-0.310
'25:10.550',-0.885,-0.300
'25:10.553',-0.895,-0.290
'25:10.556',-0.865,-0.290
'25:10.558',-0.875,-0.290
'25:10.561',-0.860,-0.285
'25:10.564',-0.860,-0.295
'25:10.567',-0.865,-0.310
'25:10.569',-0.865,-0.310
'25:10.572',-0.875,-0.320
'25:10.575',-0.895,-0.335
'25:10.578',-0.890,-0.340
'25:10.581',-0.905,-0.325
'25:10.583',-0.905,-0.320
'25:10.586',-0.895,-0.320
'25:10.589',-0.910,-0.310
'25:10.592',-0.905,-0.315
'25:10.594',-0.900,-0.300
'25:10.597',-0.890,-0.320
'25:10.600',-0.920,-0.310
'25:10.603',-0.915,-0.325
'25:10.606',-0.925,-0.335
'25:10.608',-0.925,-0.325
'25:10.611',-0.940,-0.325
'25:10.614',-0.950,-0.315
'25:10.617',-0.955,-0.310
'25:10.619',-0.960,-0.305
'25:10.622',-0.945,-0.305
'25:10.625',-0.950,-0.295
'25:10.628',-0.945,-0.290
'25:10.631',-0.945,-0.295
'25:10.633',-0.945,-0.295
'25:10.636',-0.950,-0.300
'25:10.639',-0.955,-0.305
'25:10.642',-0.960,-0.315
'25:10.644',-0.970,-0.310
'25:10.647',-0.960,-0.310
'25:10.650',-0.960,-0.305
'25:10.653',-0.965,-0.290
'25:10.656',-0.945,-0.295
'25:10.658',-0.940,-0.270
'25:10.661',-0.935,-0.275
'25:10.664',-0.940,-0.270
'25:10.667',-0.930,-0.270
'25:10.669',-0.920,-0.275
'25:10.672',-0.935,-0.285
'25:10.675',-0.930,-0.285
'25:10.678',-0.935,-0.290
'25:10.681',-0.925,-0.290
'25:10.683',-0.910,-0.270
'25:10.686',-0.905,-0.265
'25:10.689',-0.890,-0.260
'25:10.692',-0.880,-0.245
'25:10.694',-0.870,-0.240
'25:10.697',-0.865,-0.240
'25:10.700',-0.860,-0.235
'25:10.703',-0.860,-0.225
'25:10.706',-0.860,-0.245
'25:10.708',-0.855,-0.245
'25:10.711',-0.855,-0.235
'25:10.714',-0.840,-0.225
'25:10.717',-0.825,-0.225
'25:10.719',-0.815,-0.220
'25:10.722',-0.790,-0.220
'25:10.725',-0.770,-0.220
'25:10.728',-0.745,-0.240
'25:10.731',-0.740,-0.255
'25:10.733',-0.735,-0.280
'25:10.736',-0.740,-0.310
'25:10.739',-0.750,-0.320
'25:10.742',-0.775,-0.350
'25:10.744',-0.780,-0.370
'25:10.747',-0.800,-0.370
'25:10.750',-0.800,-0.365
'25:10.753',-0.815,-0.345
'25:10.756',-0.825,-0.320
'25:10.758',-0.825,-0.315
'25:10.761',-0.830,-0.290
'25:10.764',-0.850,-0.290
'25:10.767',-0.855,-0.290
'25:10.769',-0.865,-0.285
'25:10.772',-0.880,-0.290
'25:10.775',-0.905,-0.305
'25:10.778',-0.920,-0.305
'25:10.781',-0.925,-0.300
'25:10.783',-0.950,-0.290
'25:10.786',-0.935,-0.285
'25:10.789',-0.945,-0.270
'25:10.792',-0.940,-0.265
'25:10.794',-0.920,-0.260
'25:10.797',-0.920,-0.270
'25:10.800',-0.920,-0.270
'25:10.803',-0.930,-0.275
'25:10.806',-0.955,-0.290
'25:10.808',-0.930,-0.290
'25:10.811',-0.940,-0.295
'25:10.814',-0.930,-0.295
'25:10.817',-0.930,-0.295
'25:10.819',-0.915,-0.290
'25:10.822',-0.915,-0.285
'25:10.825',-0.895,-0.275
'25:10.828',-0.885,-0.275
'25:10.831',-0.870,-0.270
'25:10.833',-0.870,-0.275
'25:10.836',-0.875,-0.285
'25:10.839',-0.880,-0.295
'25:10.842',-0.850,-0.315
'25:10.844',-0.840,-0.300
'25:10.847',-0.815,-0.315
'25:10.850',-0.770,-0.300
'25:10.853',-0.735,-0.300
'25:10.856',-0.675,-0.300
'25:10.858',-0.590,-0.280
'25:10.861',-0.515,-0.295
'25:10.864',-0.425,-0.300
'25:10.867',-0.325,-0.310
'25:10.869',-0.195,-0.320
'25:10.872',-0.040,-0.345
'25:10.875',0.120,-0.400
'25:10.878',0.290,-0.420
'25:10.881',0.460,-0.465
'25:10.883',0.635,-0.525
'25:10.886',0.780,-0.615
'25:10.889',0.925,-0.700
'25:10.892',1.080,-0.795
'25:10.894',1.240,-0.880
'25:10.897',1.395,-0.970
'25:10.900',1.510,-1.075
'25:10.903',1.505,-1.160
'25:10.906',1.335,-1.255
'25:10.908',0.995,-1.320
'25:10.911',0.510,-1.365
'25:10.914',-0.035,-1.365
'25:10.917',-0.530,-1.320
'25:10.919',-0.915,-1.240
'25:10.922',-1.135,-1.130
'25:10.925',-1.220,-1.025
'25:10.928',-1.215,-0.910
'25:10.931',-1.145,-0.840
'25:10.933',-1.090,-0.760
'25:10.936',-1.050,-0.710
'25:10.939',-1.025,-0.655
'25:10.942',-1.015,-0.615
'25:10.944',-1.030,-0.555
'25:10.947',-1.040,-0.490
'25:10.950',-1.050,-0.415
'25:10.953',-1.050,-0.360
'25:10.956',-1.045,-0.320
'25:10.958',-1.060,-0.300
'25:10.961',-1.055,-0.285
'25:10.964',-1.055,-0.300
'25:10.967',-1.065,-0.305
'25:10.969',-1.060,-0.290
'25:10.972',-1.070,-0.295
'25:10.975',-1.080,-0.300
'25:10.978',-1.075,-0.295
'25:10.981',-1.100,-0.290
'25:10.983',-1.095,-0.275
'25:10.986',-1.095,-0.265
'25:10.989',-1.085,-0.260
'25:10.992',-1.085,-0.250
'25:10.994',-1.080,-0.250
'25:10.997',-1.075,-0.245
'25:11.000',-1.090,-0.255
'25:11.003',-1.085,-0.250
'25:11.006',-1.105,-0.260
'25:11.008',-1.115,-0.265
'25:11.011',-1.120,-0.270
'25:11.014',-1.135,-0.255
'25:11.017',-1.125,-0.255
'25:11.019',-1.130,-0.245
'25:11.022',-1.130,-0.245
'25:11.025',-1.125,-0.230
'25:11.028',-1.115,-0.240
'25:11.031',-1.125,-0.235
'25:11.033',-1.125,-0.235
'25:11.036',-1.150,-0.245
'25:11.039',-1.150,-0.250
'25:11.042',-1.145,-0.250
'25:11.044',-1.145,-0.250
'25:11.047',-1.160,-0.245
'25:11.050',-1.175,-0.245
'25:11.053',-1.165,-0.230
'25:11.056',-1.170,-0.210
'25:11.058',-1.170,-0.220
'25:11.061',-1.165,-0.210
'25:11.064',-1.165,-0.215
'25:11.067',-1.170,-0.225
'25:11.069',-1.175,-0.230
'25:11.072',-1.195,-0.235
'25:11.075',-1.195,-0.250
'25:11.078',-1.220,-0.240
'25:11.081',-1.220,-0.240
'25:11.083',-1.215,-0.240
'25:11.086',-1.220,-0.220
'25:11.089',-1.225,-0.210
'25:11.092',-1.220,-0.200
'25:11.094',-1.215,-0.190
'25:11.097',-1.225,-0.205
'25:11.100',-1.220,-0.200
'25:11.103',-1.225,-0.215
'25:11.106',-1.230,-0.200
'25:11.108',-1.245,-0.215
'25:11.111',-1.250,-0.220
'25:11.114',-1.260,-0.205
'25:11.117',-1.265,-0.200
'25:11.119',-1.260,-0.200
'25:11.122',-1.255,-0.180
'25:11.125',-1.245,-0.160
'25:11.128',-1.235,-0.160
'25:11.131',-1.225,-0.165
'25:11.133',-1.225,-0.165
'25:11.136',-1.205,-0.160
'25:11.139',-1.210,-0.160
'25:11.142',-1.215,-0.180
'25:11.144',-1.215,-0.170
'25:11.147',-1.195,-0.170
'25:11.150',-1.185,-0.150
'25:11.153',-1.165,-0.150
'25:11.156',-1.150,-0.155
'25:11.158',-1.140,-0.130
'25:11.161',-1.115,-0.145
'25:11.164',-1.100,-0.135
'25:11.167',-1.065,-0.140
'25:11.169',-1.050,-0.150
'25:11.172',-1.045,-0.160
'25:11.175',-1.040,-0.160
'25:11.178',-1.025,-0.175
'25:11.181',-1.015,-0.175
'25:11.183',-0.975,-0.175
'25:11.186',-0.955,-0.180
'25:11.189',-0.960,-0.180
'25:11.192',-0.930,-0.170
'25:11.194',-0.905,-0.190
'25:11.197',-0.890,-0.185
'25:11.200',-0.895,-0.200
'25:11.203',-0.875,-0.205
'25:11.206',-0.880,-0.210
'25:11.208',-0.895,-0.225
'25:11.211',-0.905,-0.235
'25:11.214',-0.885,-0.245
'25:11.217',-0.895,-0.245
'25:11.219',-0.885,-0.235
'25:11.222',-0.885,-0.235
'25:11.225',-0.870,-0.230
'25:11.228',-0.865,-0.230
'25:11.231',-0.865,-0.230
'25:11.233',-0.860,-0.245
'25:11.236',-0.860,-0.250
'25:11.239',-0.870,-0.270
'25:11.242',-0.870,-0.275
'25:11.244',-0.870,-0.280
'25:11.247',-0.880,-0.285
'25:11.250',-0.880,-0.275
'25:11.253',-0.880,-0.280
'25:11.256',-0.880,-0.270
'25:11.258',-0.880,-0.260
'25:11.261',-0.870,-0.255
'25:11.264',-0.875,-0.265
'25:11.267',-0.870,-0.270
'25:11.269',-0.890,-0.275
'25:11.272',-0.890,-0.295
'25:11.275',-0.890,-0.290
'25:11.278',-0.890,-0.305
'25:11.281',-0.900,-0.285
'25:11.283',-0.910,-0.280
'25:11.286',-0.900,-0.290
'25:11.289',-0.895,-0.280
'25:11.292',-0.905,-0.270
'25:11.294',-0.890,-0.260
'25:11.297',-0.890,-0.270
'25:11.300',-0.895,-0.275
'25:11.303',-0.905,-0.275
'25:11.306',-0.915,-0.295
'25:11.308',-0.925,-0.300
'25:11.311',-0.930,-0.305
'25:11.314',-0.945,-0.300
'25:11.317',-0.940,-0.305
'25:11.319',-0.935,-0.290
'25:11.322',-0.935,-0.285
'25:11.325',-0.930,-0.275
'25:11.328',-0.920,-0.270
'25:11.331',-0.925,-0.275
'25:11.333',-0.930,-0.285
'25:11.336',-0.935,-0.280
'25:11.339',-0.940,-0.290
'25:11.342',-0.950,-0.285
'25:11.344',-0.965,-0.290
'25:11.347',-0.960,-0.285
'25:11.350',-0.960,-0.290
'25:11.353',-0.960,-0.275
'25:11.356',-0.960,-0.260
'25:11.358',-0.945,-0.255
'25:11.361',-0.940,-0.260
'25:11.364',-0.935,-0.275
'25:11.367',-0.925,-0.245
'25:11.369',-0.930,-0.260
'25:11.372',-0.935,-0.265
'25:11.375',-0.940,-0.275
'25:11.378',-0.940,-0.280
'25:11.381',-0.945,-0.275
'25:11.383',-0.930,-0.265
'25:11.386',-0.910,-0.255
'25:11.389',-0.905,-0.250
'25:11.392',-0.895,-0.235
'25:11.394',-0.880,-0.240
'25:11.397',-0.865,-0.240
'25:11.400',-0.875,-0.245
'25:11.403',-0.865,-0.225
'25:11.406',-0.875,-0.240
'25:11.408',-0.865,-0.240
'25:11.411',-0.870,-0.250
'25:11.414',-0.870,-0.230
'25:11.417',-0.860,-0.230
'25:11.419',-0.845,-0.215
'25:11.422',-0.830,-0.195
'25:11.425',-0.815,-0.180
'25:11.428',-0.790,-0.190
'25:11.431',-0.775,-0.190
'25:11.433',-0.765,-0.210
'25:11.436',-0.750,-0.215
'25:11.439',-0.755,-0.235
'25:11.442',-0.745,-0.245
'25:11.444',-0.745,-0.270
'25:11.447',-0.745,-0.275
'25:11.450',-0.730,-0.285
'25:11.453',-0.715,-0.310
'25:11.456',-0.730,-0.315
'25:11.458',-0.730,-0.320
'25:11.461',-0.725,-0.315
'25:11.464',-0.735,-0.310
'25:11.467',-0.740,-0.310
'25:11.469',-0.755,-0.295
'25:11.472',-0.765,-0.305
'25:11.475',-0.790,-0.300
'25:11.478',-0.810,-0.300
'25:11.481',-0.820,-0.290
'25:11.483',-0.830,-0.280
'25:11.486',-0.835,-0.270
'25:11.489',-0.850,-0.270
'25:11.492',-0.860,-0.260
'25:11.494',-0.860,-0.245
'25:11.497',-0.865,-0.255
'25:11.500',-0.880,-0.260
'25:11.503',-0.890,-0.260
'25:11.506',-0.890,-0.275
'25:11.508',-0.895,-0.275
'25:11.511',-0.885,-0.280
'25:11.514',-0.885,-0.275
'25:11.517',-0.880,-0.280
'25:11.519',-0.885,-0.260
'25:11.522',-0.880,-0.265
'25:11.525',-0.875,-0.260
'25:11.528',-0.870,-0.260
'25:11.531',-0.855,-0.250
'25:11.533',-0.850,-0.270
'25:11.536',-0.840,-0.265
'25:11.539',-0.840,-0.275
'25:11.542',-0.840,-0.285
'25:11.544',-0.840,-0.290
'25:11.547',-0.845,-0.290
'25:11.550',-0.820,-0.295
'25:11.553',-0.810,-0.290
'25:11.556',-0.795,-0.280
'25:11.558',-0.760,-0.275
'25:11.561',-0.705,-0.265
'25:11.564',-0.655,-0.270
'25:11.567',-0.575,-0.275
'25:11.569',-0.460,-0.290
'25:11.572',-0.340,-0.305
'25:11.575',-0.185,-0.320
'25:11.578',0.015,-0.350
'25:11.581',0.245,-0.380
'25:11.583',0.495,-0.440
'25:11.586',0.720,-0.510
'25:11.589',0.935,-0.595
'25:11.592',1.110,-0.685
'25:11.594',1.265,-0.785
'25:11.597',1.425,-0.895
'25:11.600',1.550,-1.000
'25:11.603',1.545,-1.100
'25:11.606',1.365,-1.185
'25:11.608',1.000,-1.250
'25:11.611',0.495,-1.295
'25:11.614',-0.055,-1.295
'25:11.617',-0.545,-1.245
'25:11.619',-0.925,-1.170
'25:11.622',-1.130,-1.055
'25:11.625',-1.185,-0.960
'25:11.628',-1.150,-0.860
'25:11.631',-1.080,-0.780
'25:11.633',-1.020,-0.720
'25:11.636',-0.970,-0.660
'25:11.639',-0.960,-0.605
'25:11.642',-0.950,-0.545
'25:11.644',-0.945,-0.485
'25:11.647',-0.950,-0.415
'25:11.650',-0.965,-0.345
'25:11.653',-0.980,-0.320
'25:11.656',-0.980,-0.280
'25:11.658',-0.970,-0.275
'25:11.661',-0.955,-0.255
'25:11.664',-0.960,-0.265
'25:11.667',-0.960,-0.265
'25:11.669',-0.965,-0.265
'25:11.672',-0.970,-0.270
'25:11.675',-0.980,-0.265
'25:11.678',-0.990,-0.265
'25:11.681',-1.000,-0.250
'25:11.683',-1.005,-0.250
'25:11.686',-1.000,-0.240
'25:11.689',-1.000,-0.220
'25:11.692',-0.980,-0.225
'25:11.694',-0.985,-0.210
'25:11.697',-0.980,-0.225
'25:11.700',-0.990,-0.220
'25:11.703',-0.995,-0.225
'25:11.706',-1.005,-0.240
'25:11.708',-1.000,-0.230
'25:11.711',-1.020,-0.240
'25:11.714',-1.015,-0.230
'25:11.717',-1.015,-0.215
'25:11.719',-1.020,-0.215
'25:11.722',-1.030,-0.205
'25:11.725',-1.020,-0.205
'25:11.728',-1.025,-0.190
'25:11.731',-1.015,-0.200
'25:11.733',-1.025,-0.205
'25:11.736',-1.035,-0.200
'25:11.739',-1.055,-0.210
'25:11.742',-1.060,-0.215
'25:11.744',-1.065,-0.215
'25:11.747',-1.060,-0.200
'25:11.750',-1.070,-0.210
'25:11.753',-1.070,-0.205
'25:11.756',-1.070,-0.200
'25:11.758',-1.070,-0.195
'25:11.761',-1.080,-0.175
'25:11.764',-1.065,-0.180
'25:11.767',-1.065,-0.180
'25:11.769',-1.070,-0.185
'25:11.772',-1.095,-0.195
'25:11.775',-1.105,-0.195
'25:11.778',-1.130,-0.195
'25:11.781',-1.145,-0.185
'25:11.783',-1.150,-0.185
'25:11.786',-1.135,-0.180
'25:11.789',-1.135,-0.170
'25:11.792',-1.130,-0.165
'25:11.794',-1.120,-0.150
'25:11.797',-1.115,-0.160
'25:11.800',-1.115,-0.150
'25:11.803',-1.125,-0.160
'25:11.806',-1.125,-0.155
'25:11.808',-1.125,-0.155
'25:11.811',-1.130,-0.150
'25:11.814',-1.125,-0.145
'25:11.817',-1.115,-0.135
'25:11.819',-1.125,-0.135
'25:11.822',-1.090,-0.110
'25:11.825',-1.075,-0.100
'25:11.828',-1.055,-0.100
'25:11.831',-1.050,-0.100
'25:11.833',-1.025,-0.095
'25:11.836',-1.015,-0.110
'25:11.839',-1.005,-0.115
'25:11.842',-1.000,-0.115
'25:11.844',-0.985,-0.125
'25:11.847',-0.980,-0.115
'25:11.850',-0.960,-0.120
'25:11.853',-0.930,-0.110
'25:11.856',-0.920,-0.100
'25:11.858',-0.895,-0.085
'25:11.861',-0.865,-0.095
'25:11.864',-0.845,-0.095
'25:11.867',-0.820,-0.105
'25:11.869',-0.805,-0.115
'25:11.872',-0.795,-0.130
'25:11.875',-0.785,-0.145
'25:11.878',-0.780,-0.155
'25:11.881',-0.770,-0.150
'25:11.883',-0.770,-0.150
'25:11.886',-0.755,-0.155
'25:11.889',-0.755,-0.135
'25:11.892',-0.740,-0.150
'25:11.894',-0.740,-0.145
'25:11.897',-0.710,-0.165
'25:11.900',-0.705,-0.170
'25:11.903',-0.725,-0.175
'25:11.906',-0.725,-0.185
'25:11.908',-0.740,-0.190
'25:11.911',-0.745,-0.200
'25:11.914',-0.745,-0.205
'25:11.917',-0.745,-0.205
'25:11.919',-0.750,-0.205
'25:11.922',-0.750,-0.190
'25:11.925',-0.750,-0.175
'25:11.928',-0.740,-0.175
'25:11.931',-0.740,-0.185
'25:11.933',-0.745,-0.190
'25:11.936',-0.730,-0.200
'25:11.939',-0.745,-0.205
'25:11.942',-0.755,-0.210
'25:11.944',-0.770,-0.215
'25:11.947',-0.770,-0.220
'25:11.950',-0.775,-0.220
'25:11.953',-0.775,-0.210
'25:11.956',-0.775,-0.205
'25:11.958',-0.760,-0.195
'25:11.961',-0.765,-0.190
'25:11.964',-0.760,-0.190
'25:11.967',-0.770,-0.210
'25:11.969',-0.780,-0.215
'25:11.972',-0.785,-0.225
'25:11.975',-0.785,-0.225
'25:11.978',-0.800,-0.220
'25:11.981',-0.805,-0.230
'25:11.983',-0.800,-0.215
'25:11.986',-0.800,-0.225
'25:11.989',-0.795,-0.200
'25:11.992',-0.800,-0.190
'25:11.994',-0.790,-0.195
'25:11.997',-0.785,-0.185
'25:12.000',-0.790,-0.200
'25:12.003',-0.795,-0.200
'25:12.006',-0.815,-0.205
'25:12.008',-0.825,-0.220
'25:12.011',-0.820,-0.225
'25:12.014',-0.835,-0.210
'25:12.017',-0.830,-0.200
'25:12.019',-0.830,-0.205
'25:12.022',-0.825,-0.190
'25:12.025',-0.815,-0.190
'25:12.028',-0.820,-0.170
'25:12.031',-0.800,-0.175
'25:12.033',-0.810,-0.175
'25:12.036',-0.810,-0.190
'25:12.039',-0.810,-0.195
'25:12.042',-0.820,-0.195
'25:12.044',-0.820,-0.200
'25:12.047',-0.825,-0.195
'25:12.050',-0.830,-0.185
'25:12.053',-0.820,-0.175
'25:12.056',-0.795,-0.170
'25:12.058',-0.780,-0.160
'25:12.061',-0.765,-0.155
'25:12.064',-0.760,-0.160
'25:12.067',-0.750,-0.160
'25:12.069',-0.750,-0.170
'25:12.072',-0.755,-0.180
'25:12.075',-0.750,-0.170
'25:12.078',-0.750,-0.170
'25:12.081',-0.750,-0.170
'25:12.083',-0.740,-0.155
'25:12.086',-0.740,-0.145
'25:12.089',-0.725,-0.140
'25:12.092',-0.710,-0.120
'25:12.094',-0.680,-0.110
'25:12.097',-0.685,-0.110
'25:12.100',-0.660,-0.110
'25:12.103',-0.665,-0.115
'25:12.106',-0.670,-0.150
'25:12.108',-0.655,-0.150
'25:12.111',-0.650,-0.165
'25:12.114',-0.640,-0.170
'25:12.117',-0.625,-0.175
'25:12.119',-0.625,-0.190
'25:12.122',-0.610,-0.190
'25:12.125',-0.625,-0.205
'25:12.128',-0.595,-0.205
'25:12.131',-0.605,-0.220
'25:12.133',-0.605,-0.230
'25:12.136',-0.610,-0.255
'25:12.139',-0.635,-0.255
'25:12.142',-0.645,-0.240
'25:12.144',-0.675,-0.235
'25:12.147',-0.680,-0.225
'25:12.150',-0.700,-0.210
'25:12.153',-0.700,-0.195
'25:12.156',-0.705,-0.185
'25:12.158',-0.720,-0.175
'25:12.161',-0.705,-0.160
'25:12.164',-0.715,-0.180
'25:12.167',-0.725,-0.170
'25:12.169',-0.735,-0.180
'25:12.172',-0.760,-0.180
'25:12.175',-0.760,-0.190
'25:12.178',-0.765,-0.195
'25:12.181',-0.770,-0.185
'25:12.183',-0.775,-0.195
'25:12.186',-0.770,-0.185
'25:12.189',-0.760,-0.180
'25:12.192',-0.750,-0.170
'25:12.194',-0.745,-0.170
'25:12.197',-0.725,-0.160
'25:12.200',-0.750,-0.170
'25:12.203',-0.730,-0.185
'25:12.206',-0.720,-0.190
'25:12.208',-0.715,-0.195
'25:12.211',-0.725,-0.200
'25:12.214',-0.725,-0.215
'25:12.217',-0.715,-0.200
'25:12.219',-0.700,-0.200
'25:12.222',-0.675,-0.190
'25:12.225',-0.660,-0.190
'25:12.228',-0.635,-0.190
'25:12.231',-0.600,-0.200
'25:12.233',-0.535,-0.200
'25:12.236',-0.470,-0.205
'25:12.239',-0.390,-0.210
'25:12.242',-0.285,-0.205
'25:12.244',-0.165,-0.225
'25:12.247',0.000,-0.225
'25:12.250',0.190,-0.230
'25:12.253',0.415,-0.255
'25:12.256',0.635,-0.285
'25:12.258',0.835,-0.345
'25:12.261',0.985,-0.405
'25:12.264',1.110,-0.510
'25:12.267',1.220,-0.585
'25:12.269',1.345,-0.690
'25:12.272',1.465,-0.790
'25:12.275',1.525,-0.885
'25:12.278',1.445,-0.970
'25:12.281',1.210,-1.025
'25:12.283',0.830,-1.065
'25:12.286',0.335,-1.090
'25:12.289',-0.140,-1.065
'25:12.292',-0.555,-1.035
'25:12.294',-0.860,-0.960
'25:12.297',-1.010,-0.885
'25:12.300',-1.060,-0.810
'25:12.303',-1.040,-0.725
'25:12.306',-0.995,-0.670
'25:12.308',-0.940,-0.610
'25:12.311',-0.915,-0.555
'25:12.314',-0.900,-0.505
'25:12.317',-0.885,-0.460
'25:12.319',-0.880,-0.390
'25:12.322',-0.865,-0.335
'25:12.325',-0.845,-0.285
'25:12.328',-0.840,-0.240
'25:12.331',-0.855,-0.220
'25:12.333',-0.855,-0.205
'25:12.336',-0.865,-0.220
'25:12.339',-0.880,-0.215
'25:12.342',-0.880,-0.215
'25:12.344',-0.895,-0.225
'25:12.347',-0.900,-0.220
'25:12.350',-0.900,-0.200
'25:12.353',-0.900,-0.200
'25:12.356',-0.900,-0.180
'25:12.358',-0.895,-0.170
'25:12.361',-0.890,-0.170
'25:12.364',-0.880,-0.170
'25:12.367',-0.890,-0.175
'25:12.369',-0.890,-0.180
'25:12.372',-0.900,-0.195
'25:12.375',-0.910,-0.195
'25:12.378',-0.925,-0.200
'25:12.381',-0.940,-0.190
'25:12.383',-0.935,-0.185
'25:12.386',-0.940,-0.185
'25:12.389',-0.940,-0.170
'25:12.392',-0.930,-0.170
'25:12.394',-0.930,-0.155
'25:12.397',-0.925,-0.160
'25:12.400',-0.935,-0.160
'25:12.403',-0.950,-0.170
'25:12.406',-0.960,-0.175
'25:12.408',-0.975,-0.175
'25:12.411',-0.980,-0.185
'25:12.414',-0.990,-0.175
'25:12.417',-1.010,-0.175
'25:12.419',-0.990,-0.170
'25:12.422',-0.985,-0.160
'25:12.425',-0.990,-0.160
'25:12.428',-0.985,-0.150
'25:12.431',-0.990,-0.155
'25:12.433',-1.000,-0.145
'25:12.436',-1.010,-0.155
'25:12.439',-1.020,-0.165
'25:12.442',-1.035,-0.165
'25:12.444',-1.040,-0.165
'25:12.447',-1.050,-0.160
'25:12.450',-1.050,-0.155
'25:12.453',-1.060,-0.140
'25:12.456',-1.060,-0.145
'25:12.458',-1.055,-0.135
'25:12.461',-1.050,-0.115
'25:12.464',-1.045,-0.125
'25:12.467',-1.045,-0.120
'25:12.469',-1.040,-0.140
'25:12.472',-1.050,-0.125
'25:12.475',-1.055,-0.140
'25:12.478',-1.050,-0.140
'25:12.481',-1.055,-0.140
'25:12.483',-1.060,-0.130
'25:12.486',-1.050,-0.125
'25:12.489',-1.035,-0.110
'25:12.492',-1.010,-0.105
'25:12.494',-0.990,-0.100
'25:12.497',-0.985,-0.105
'25:12.500',-0.985,-0.095
'25:12.503',-0.970,-0.105
'25:12.506',-0.965,-0.110
'25:12.508',-0.970,-0.110
'25:12.511',-0.945,-0.120
'25:12.514',-0.920,-0.125
'25:12.517',-0.920,-0.105
'25:12.519',-0.900,-0.115
'25:12.522',-0.880,-0.100
'25:12.525',-0.850,-0.095
'25:12.528',-0.840,-0.085
'25:12.531',-0.805,-0.095
'25:12.533',-0.800,-0.110
'25:12.536',-0.775,-0.115
'25:12.539',-0.770,-0.125
'25:12.542',-0.755,-0.135
'25:12.544',-0.750,-0.140
'25:12.547',-0.740,-0.145
'25:12.550',-0.720,-0.145
'25:12.553',-0.710,-0.145
'25:12.556',-0.700,-0.150
'25:12.558',-0.685,-0.150
'25:12.561',-0.675,-0.150
'25:12.564',-0.665,-0.155
'25:12.567',-0.675,-0.160
'25:12.569',-0.675,-0.175
'25:12.572',-0.670,-0.185
'25:12.575',-0.680,-0.200
'25:12.578',-0.685,-0.210
'25:12.581',-0.690,-0.220
'25:12.583',-0.690,-0.210
'25:12.586',-0.700,-0.205
'25:12.589',-0.700,-0.205
'25:12.592',-0.690,-0.195
'25:12.594',-0.680,-0.200
'25:12.597',-0.675,-0.205
'25:12.600',-0.700,-0.215
'25:12.603',-0.690,-0.225
'25:12.606',-0.680,-0.235
'25:12.608',-0.705,-0.245
'25:12.611',-0.695,-0.245
'25:12.614',-0.710,-0.245
'25:12.617',-0.705,-0.245
'25:12.619',-0.710,-0.235
'25:12.622',-0.710,-0.230
'25:12.625',-0.700,-0.225
'25:12.628',-0.700,-0.215
'25:12.631',-0.700,-0.230
'25:12.633',-0.710,-0.225
'25:12.636',-0.705,-0.230
'25:12.639',-0.715,-0.260
'25:12.642',-0.730,-0.255
'25:12.644',-0.735,-0.260
'25:12.647',-0.735,-0.270
'25:12.650',-0.740,-0.255
'25:12.653',-0.750,-0.255
'25:12.656',-0.735,-0.245
'25:12.658',-0.730,-0.235
'25:12.661',-0.730,-0.230
'25:12.664',-0.730,-0.225
'25:12.667',-0.735,-0.230
'25:12.669',-0.735,-0.245
'25:12.672',-0.745,-0.265
'25:12.675',-0.745,-0.250
'25:12.678',-0.765,-0.265
'25:12.681',-0.765,-0.255
'25:12.683',-0.760,-0.255
'25:12.686',-0.775,-0.245
'25:12.689',-0.755,-0.230
'25:12.692',-0.750,-0.225
'25:12.694',-0.750,-0.225
'25:12.697',-0.750,-0.225
'25:12.700',-0.750,-0.240
'25:12.703',-0.750,-0.250
'25:12.706',-0.750,-0.250
'25:12.708',-0.760,-0.255
'25:12.711',-0.770,-0.255
'25:12.714',-0.765,-0.250
'25:12.717',-0.765,-0.245
'25:12.719',-0.750,-0.250
'25:12.722',-0.740,-0.240
'25:12.725',-0.735,-0.235
'25:12.728',-0.715,-0.230
'25:12.731',-0.705,-0.235
'25:12.733',-0.705,-0.230
'25:12.736',-0.700,-0.240
'25:12.739',-0.700,-0.250
'25:12.742',-0.700,-0.255
'25:12.744',-0.685,-0.260
'25:12.747',-0.675,-0.235
'25:12.750',-0.680,-0.240
'25:12.753',-0.675,-0.220
'25:12.756',-0.655,-0.215
'25:12.758',-0.645,-0.200
'25:12.761',-0.625,-0.205
'25:12.764',-0.605,-0.210
'25:12.767',-0.605,-0.215
'25:12.769',-0.585,-0.230
'25:12.772',-0.580,-0.250
'25:12.775',-0.570,-0.260
'25:12.778',-0.570,-0.280
'25:12.781',-0.555,-0.295
'25:12.783',-0.555,-0.305
'25:12.786',-0.545,-0.325
'25:12.789',-0.545,-0.320
'25:12.792',-0.545,-0.335
'25:12.794',-0.555,-0.320
'25:12.797',-0.560,-0.325
'25:12.800',-0.565,-0.320
'25:12.803',-0.595,-0.295
'25:12.806',-0.610,-0.305
'25:12.808',-0.615,-0.300
'25:12.811',-0.625,-0.305
'25:12.814',-0.650,-0.305
'25:12.817',-0.650,-0.300
'25:12.819',-0.655,-0.295
'25:12.822',-0.655,-0.285
'25:12.825',-0.665,-0.280
'25:12.828',-0.665,-0.275
'25:12.831',-0.685,-0.270
'25:12.833',-0.680,-0.280
'25:12.836',-0.685,-0.280
'25:12.839',-0.685,-0.305
'25:12.842',-0.700,-0.315
'25:12.844',-0.705,-0.310
'25:12.847',-0.695,-0.315
'25:12.850',-0.685,-0.315
'25:12.853',-0.665,-0.330
'25:12.856',-0.605,-0.345
'25:12.858',-0.565,-0.355
'25:12.861',-0.525,-0.365
'25:12.864',-0.470,-0.385
'25:12.867',-0.420,-0.415
'25:12.869',-0.350,-0.450
'25:12.872',-0.285,-0.480
'25:12.875',-0.205,-0.515
