'Elapsed time','MLII','V1'
'hh:mm:ss.mmm','mV','mV'
'13:00.000',0.675,-0.830
'13:00.003',0.695,-0.860
'13:00.006',0.715,-0.865
'13:00.008',0.745,-0.860
'13:00.011',0.775,-0.855
'13:00.014',0.810,-0.865
'13:00.017',0.825,-0.875
'13:00.019',0.845,-0.895
'13:00.022',0.855,-0.905
'13:00.025',0.910,-0.885
'13:00.028',0.950,-0.880
'13:00.031',0.985,-0.875
'13:00.033',1.000,-0.900
'13:00.036',1.040,-0.910
'13:00.039',1.065,-0.900
'13:00.042',1.105,-0.885
'13:00.044',1.150,-0.855
'13:00.047',1.170,-0.855
'13:00.050',1.160,-0.860
'13:00.053',1.165,-0.870
'13:00.056',1.175,-0.860
'13:00.058',1.210,-0.840
'13:00.061',1.215,-0.810
'13:00.064',1.215,-0.810
'13:00.067',1.230,-0.790
'13:00.069',1.225,-0.785
'13:00.072',1.200,-0.780
'13:00.075',1.200,-0.740
'13:00.078',1.175,-0.700
'13:00.081',1.170,-0.700
'13:00.083',1.150,-0.680
'13:00.086',1.115,-0.680
'13:00.089',1.060,-0.645
'13:00.092',1.030,-0.600
'13:00.094',1.005,-0.565
'13:00.097',0.965,-0.545
'13:00.100',0.925,-0.525
'13:00.103',0.875,-0.505
'13:00.106',0.815,-0.465
'13:00.108',0.785,-0.435
'13:00.111',0.740,-0.405
'13:00.114',0.700,-0.395
'13:00.117',0.625,-0.370
'13:00.119',0.585,-0.375
'13:00.122',0.545,-0.345
'13:00.125',0.535,-0.310
'13:00.128',0.505,-0.250
'13:00.131',0.480,-0.230
'13:00.133',0.405,-0.220
'13:00.136',0.335,-0.210
'13:00.139',0.265,-0.185
'13:00.142',0.225,-0.135
'13:00.144',0.185,-0.115
'13:00.147',0.160,-0.095
'13:00.150',0.100,-0.105
'13:00.153',0.045,-0.095
'13:00.156',-0.010,-0.085
'13:00.158',-0.035,-0.075
'13:00.161',-0.045,-0.055
'13:00.164',-0.070,-0.035
'13:00.167',-0.110,-0.050
'13:00.169',-0.150,-0.065
'13:00.172',-0.185,-0.040
'13:00.175',-0.185,-0.015
'13:00.178',-0.190,-0.005
'13:00.181',-0.195,-0.030
'13:00.183',-0.200,-0.045
'13:00.186',-0.215,-0.055
'13:00.189',-0.240,-0.045
'13:00.192',-0.245,-0.035
'13:00.194',-0.250,0.000
'13:00.197',-0.250,-0.015
'13:00.200',-0.260,-0.020
'13:00.203',-0.275,-0.035
'13:00.206',-0.265,-0.045
'13:00.208',-0.305,-0.030
'13:00.211',-0.290,-0.015
'13:00.214',-0.300,-0.015
'13:00.217',-0.310,-0.025
'13:00.219',-0.320,-0.040
'13:00.222',-0.310,-0.040
'13:00.225',-0.295,-0.030
'13:00.228',-0.295,-0.010
'13:00.231',-0.300,-0.020
'13:00.233',-0.320,-0.035
'13:00.236',-0.335,-0.055
'13:00.239',-0.345,-0.045
'13:00.242',-0.345,-0.020
'13:00.244',-0.320,-0.015
'13:00.247',-0.325,-0.020
'13:00.250',-0.330,-0.045
'13:00.253',-0.355,-0.050
'13:00.256',-0.360,-0.045
'13:00.258',-0.360,-0.020
'13:00.261',-0.345,-0.015
'13:00.264',-0.335,-0.015
'13:00.267',-0.350,-0.035
'13:00.269',-0.385,-0.055
'13:00.272',-0.380,-0.055
'13:00.275',-0.395,-0.030
'13:00.278',-0.375,-0.025
'13:00.281',-0.360,-0.035
'13:00.283',-0.365,-0.040
'13:00.286',-0.370,-0.045
'13:00.289',-0.375,-0.070
'13:00.292',-0.385,-0.050
'13:00.294',-0.385,-0.035
'13:00.297',-0.370,-0.040
'13:00.300',-0.390,-0.055
'13:00.303',-0.405,-0.060
'13:00.306',-0.410,-0.055
'13:00.308',-0.405,-0.045
'13:00.311',-0.400,-0.020
'13:00.314',-0.400,-0.040
'13:00.317',-0.400,-0.065
'13:00.319',-0.430,-0.075
'13:00.322',-0.430,-0.070
'13:00.325',-0.440,-0.045
'13:00.328',-0.425,-0.030
'13:00.331',-0.415,-0.025
'13:00.333',-0.430,-0.045
'13:00.336',-0.450,-0.075
'13:00.339',-0.460,-0.075
'13:00.342',-0.445,-0.055
'13:00.344',-0.415,-0.045
'13:00.347',-0.425,-0.045
'13:00.350',-0.440,-0.055
'13:00.353',-0.450,-0.080
'13:00.356',-0.465,-0.070
'13:00.358',-0.450,-0.050
'13:00.361',-0.430,-0.050
'13:00.364',-0.425,-0.055
'13:00.367',-0.440,-0.055
'13:00.369',-0.460,-0.080
'13:00.372',-0.465,-0.075
'13:00.375',-0.450,-0.065
'13:00.378',-0.430,-0.055
'13:00.381',-0.425,-0.050
'13:00.383',-0.435,-0.070
'13:00.386',-0.465,-0.070
'13:00.389',-0.465,-0.070
'13:00.392',-0.455,-0.050
'13:00.394',-0.455,-0.045
'13:00.397',-0.435,-0.040
'13:00.400',-0.440,-0.065
'13:00.403',-0.440,-0.080
'13:00.406',-0.460,-0.060
'13:00.408',-0.470,-0.055
'13:00.411',-0.445,-0.035
'13:00.414',-0.440,-0.050
'13:00.417',-0.460,-0.045
'13:00.419',-0.465,-0.065
'13:00.422',-0.480,-0.055
'13:00.425',-0.475,-0.055
'13:00.428',-0.460,-0.040
'13:00.431',-0.445,-0.045
'13:00.433',-0.440,-0.040
'13:00.436',-0.460,-0.065
'13:00.439',-0.470,-0.050
'13:00.442',-0.465,-0.035
'13:00.444',-0.450,-0.045
'13:00.447',-0.455,-0.060
'13:00.450',-0.460,-0.065
'13:00.453',-0.470,-0.065
'13:00.456',-0.470,-0.075
'13:00.458',-0.460,-0.045
'13:00.461',-0.440,-0.030
'13:00.464',-0.445,-0.035
'13:00.467',-0.465,-0.045
'13:00.469',-0.465,-0.080
'13:00.472',-0.475,-0.070
'13:00.475',-0.475,-0.040
'13:00.478',-0.445,-0.020
'13:00.481',-0.440,-0.030
'13:00.483',-0.445,-0.045
'13:00.486',-0.455,-0.065
'13:00.489',-0.475,-0.065
'13:00.492',-0.465,-0.040
'13:00.494',-0.435,-0.020
'13:00.497',-0.430,-0.045
'13:00.500',-0.455,-0.045
'13:00.503',-0.465,-0.055
'13:00.506',-0.475,-0.055
'13:00.508',-0.475,-0.045
'13:00.511',-0.465,-0.035
'13:00.514',-0.445,-0.035
'13:00.517',-0.460,-0.040
'13:00.519',-0.465,-0.055
'13:00.522',-0.485,-0.060
'13:00.525',-0.485,-0.035
'13:00.528',-0.455,-0.035
'13:00.531',-0.440,-0.040
'13:00.533',-0.455,-0.045
'13:00.536',-0.465,-0.065
'13:00.539',-0.475,-0.060
'13:00.542',-0.475,-0.040
'13:00.544',-0.470,-0.025
'13:00.547',-0.440,-0.025
'13:00.550',-0.465,-0.055
'13:00.553',-0.460,-0.055
'13:00.556',-0.460,-0.045
'13:00.558',-0.460,-0.035
'13:00.561',-0.455,-0.015
'13:00.564',-0.450,-0.020
'13:00.567',-0.460,-0.035
'13:00.569',-0.470,-0.040
'13:00.572',-0.465,-0.030
'13:00.575',-0.470,-0.030
'13:00.578',-0.445,-0.005
'13:00.581',-0.450,-0.035
'13:00.583',-0.450,-0.025
'13:00.586',-0.465,-0.035
'13:00.589',-0.465,-0.050
'13:00.592',-0.455,-0.010
'13:00.594',-0.445,0.005
'13:00.597',-0.430,-0.015
'13:00.600',-0.445,-0.020
'13:00.603',-0.470,-0.045
'13:00.606',-0.470,-0.045
'13:00.608',-0.460,-0.025
'13:00.611',-0.440,0.000
'13:00.614',-0.425,-0.005
'13:00.617',-0.425,-0.020
'13:00.619',-0.445,-0.045
'13:00.622',-0.465,-0.045
'13:00.625',-0.455,-0.030
'13:00.628',-0.450,-0.010
'13:00.631',-0.435,-0.015
'13:00.633',-0.410,-0.030
'13:00.636',-0.445,-0.045
'13:00.639',-0.450,-0.035
'13:00.642',-0.450,-0.020
'13:00.644',-0.435,-0.010
'13:00.647',-0.425,-0.025
'13:00.650',-0.425,-0.050
'13:00.653',-0.435,-0.040
'13:00.656',-0.445,-0.035
'13:00.658',-0.440,-0.010
'13:00.661',-0.435,-0.005
'13:00.664',-0.420,-0.010
'13:00.667',-0.425,-0.035
'13:00.669',-0.420,-0.040
'13:00.672',-0.440,-0.035
'13:00.675',-0.445,-0.015
'13:00.678',-0.440,-0.010
'13:00.681',-0.435,0.000
'13:00.683',-0.430,-0.020
'13:00.686',-0.430,-0.045
'13:00.689',-0.445,-0.025
'13:00.692',-0.435,-0.005
'13:00.694',-0.425,0.000
'13:00.697',-0.420,-0.005
'13:00.700',-0.435,-0.020
'13:00.703',-0.445,-0.040
'13:00.706',-0.435,-0.030
'13:00.708',-0.430,-0.015
'13:00.711',-0.410,-0.005
'13:00.714',-0.405,-0.015
'13:00.717',-0.420,-0.020
'13:00.719',-0.435,-0.025
'13:00.722',-0.435,-0.015
'13:00.725',-0.420,-0.015
'13:00.728',-0.405,-0.015
'13:00.731',-0.385,-0.020
'13:00.733',-0.385,-0.040
'13:00.736',-0.380,-0.050
'13:00.739',-0.370,-0.045
'13:00.742',-0.345,-0.030
'13:00.744',-0.325,-0.005
'13:00.747',-0.315,-0.005
'13:00.750',-0.325,-0.025
'13:00.753',-0.355,-0.035
'13:00.756',-0.360,-0.040
'13:00.758',-0.355,-0.025
'13:00.761',-0.345,-0.010
'13:00.764',-0.320,-0.025
'13:00.767',-0.305,-0.015
'13:00.769',-0.310,-0.055
'13:00.772',-0.335,-0.055
'13:00.775',-0.340,-0.040
'13:00.778',-0.340,-0.020
'13:00.781',-0.325,-0.030
'13:00.783',-0.325,-0.040
'13:00.786',-0.335,-0.045
'13:00.789',-0.355,-0.040
'13:00.792',-0.365,-0.020
'13:00.794',-0.370,-0.020
'13:00.797',-0.360,-0.035
'13:00.800',-0.370,-0.050
'13:00.803',-0.380,-0.050
'13:00.806',-0.390,-0.035
'13:00.808',-0.405,-0.040
'13:00.811',-0.390,-0.020
'13:00.814',-0.400,-0.025
'13:00.817',-0.430,-0.045
'13:00.819',-0.455,-0.065
'13:00.822',-0.445,-0.070
'13:00.825',-0.435,-0.065
'13:00.828',-0.410,-0.040
'13:00.831',-0.400,-0.025
'13:00.833',-0.410,-0.035
'13:00.836',-0.425,-0.060
'13:00.839',-0.460,-0.055
'13:00.842',-0.450,-0.045
'13:00.844',-0.420,-0.025
'13:00.847',-0.400,-0.020
'13:00.850',-0.415,-0.030
'13:00.853',-0.430,-0.055
'13:00.856',-0.450,-0.040
'13:00.858',-0.440,-0.025
'13:00.861',-0.415,-0.025
'13:00.864',-0.390,-0.015
'13:00.867',-0.385,-0.030
'13:00.869',-0.400,-0.040
'13:00.872',-0.430,0.000
'13:00.875',-0.440,0.045
'13:00.878',-0.425,0.075
'13:00.881',-0.420,0.070
'13:00.883',-0.410,0.000
'13:00.886',-0.375,-0.060
'13:00.889',-0.285,-0.125
'13:00.892',-0.150,-0.200
'13:00.894',-0.035,-0.330
'13:00.897',0.065,-0.485
'13:00.900',0.155,-0.650
'13:00.903',0.285,-0.790
'13:00.906',0.430,-0.870
'13:00.908',0.640,-0.950
'13:00.911',0.905,-1.010
'13:00.914',1.190,-1.050
'13:00.917',1.435,-1.080
'13:00.919',1.700,-1.125
'13:00.922',1.930,-1.125
'13:00.925',2.115,-1.100
'13:00.928',2.200,-1.060
'13:00.931',2.225,-1.050
'13:00.933',2.185,-1.050
'13:00.936',2.065,-1.055
'13:00.939',1.810,-1.060
'13:00.942',1.405,-1.015
'13:00.944',1.015,-0.975
'13:00.947',0.660,-0.920
'13:00.950',0.445,-0.870
'13:00.953',0.330,-0.845
'13:00.956',0.270,-0.750
'13:00.958',0.230,-0.645
'13:00.961',0.210,-0.535
'13:00.964',0.185,-0.475
'13:00.967',0.150,-0.445
'13:00.969',0.090,-0.400
'13:00.972',0.010,-0.350
'13:00.975',-0.050,-0.285
'13:00.978',-0.080,-0.225
'13:00.981',-0.105,-0.190
'13:00.983',-0.140,-0.185
'13:00.986',-0.170,-0.150
'13:00.989',-0.195,-0.095
'13:00.992',-0.235,-0.045
'13:00.994',-0.250,0.000
'13:00.997',-0.290,0.045
'13:01.000',-0.335,0.080
'13:01.003',-0.390,0.090
'13:01.006',-0.440,0.115
'13:01.008',-0.470,0.150
'13:01.011',-0.495,0.185
'13:01.014',-0.500,0.225
'13:01.017',-0.550,0.225
'13:01.019',-0.585,0.205
'13:01.022',-0.610,0.240
'13:01.025',-0.595,0.245
'13:01.028',-0.580,0.255
'13:01.031',-0.575,0.280
'13:01.033',-0.595,0.285
'13:01.036',-0.630,0.275
'13:01.039',-0.645,0.280
'13:01.042',-0.645,0.320
'13:01.044',-0.635,0.335
'13:01.047',-0.615,0.325
'13:01.050',-0.625,0.315
'13:01.053',-0.640,0.295
'13:01.056',-0.650,0.310
'13:01.058',-0.650,0.340
'13:01.061',-0.650,0.365
'13:01.064',-0.655,0.370
'13:01.067',-0.640,0.370
'13:01.069',-0.660,0.370
'13:01.072',-0.665,0.390
'13:01.075',-0.660,0.415
'13:01.078',-0.665,0.425
'13:01.081',-0.670,0.435
'13:01.083',-0.680,0.450
'13:01.086',-0.690,0.430
'13:01.089',-0.690,0.450
'13:01.092',-0.680,0.475
'13:01.094',-0.675,0.505
'13:01.097',-0.680,0.510
'13:01.100',-0.690,0.505
'13:01.103',-0.715,0.495
'13:01.106',-0.710,0.515
'13:01.108',-0.705,0.565
'13:01.111',-0.700,0.605
'13:01.114',-0.695,0.600
'13:01.117',-0.725,0.605
'13:01.119',-0.745,0.605
'13:01.122',-0.775,0.625
'13:01.125',-0.780,0.650
'13:01.128',-0.745,0.690
'13:01.131',-0.735,0.705
'13:01.133',-0.765,0.690
'13:01.136',-0.770,0.680
'13:01.139',-0.815,0.685
'13:01.142',-0.820,0.700
'13:01.144',-0.820,0.715
'13:01.147',-0.815,0.720
'13:01.150',-0.820,0.695
'13:01.153',-0.830,0.700
'13:01.156',-0.830,0.695
'13:01.158',-0.835,0.715
'13:01.161',-0.840,0.730
'13:01.164',-0.835,0.715
'13:01.167',-0.850,0.700
'13:01.169',-0.860,0.675
'13:01.172',-0.865,0.670
'13:01.175',-0.860,0.680
'13:01.178',-0.840,0.680
'13:01.181',-0.840,0.650
'13:01.183',-0.850,0.610
'13:01.186',-0.845,0.570
'13:01.189',-0.845,0.555
'13:01.192',-0.815,0.570
'13:01.194',-0.775,0.565
'13:01.197',-0.770,0.535
'13:01.200',-0.765,0.515
'13:01.203',-0.755,0.465
'13:01.206',-0.750,0.445
'13:01.208',-0.715,0.425
'13:01.211',-0.685,0.430
'13:01.214',-0.645,0.370
'13:01.217',-0.620,0.350
'13:01.219',-0.610,0.305
'13:01.222',-0.600,0.275
'13:01.225',-0.565,0.270
'13:01.228',-0.530,0.270
'13:01.231',-0.500,0.270
'13:01.233',-0.470,0.235
'13:01.236',-0.460,0.190
'13:01.239',-0.440,0.170
'13:01.242',-0.430,0.190
'13:01.244',-0.380,0.165
'13:01.247',-0.375,0.150
'13:01.250',-0.385,0.125
'13:01.253',-0.365,0.110
'13:01.256',-0.380,0.100
'13:01.258',-0.350,0.115
'13:01.261',-0.320,0.095
'13:01.264',-0.310,0.095
'13:01.267',-0.320,0.055
'13:01.269',-0.320,0.040
'13:01.272',-0.320,0.035
'13:01.275',-0.320,0.060
'13:01.278',-0.310,0.075
'13:01.281',-0.295,0.075
'13:01.283',-0.290,0.055
'13:01.286',-0.315,0.030
'13:01.289',-0.325,0.020
'13:01.292',-0.340,0.045
'13:01.294',-0.340,0.050
'13:01.297',-0.315,0.060
'13:01.300',-0.320,0.060
'13:01.303',-0.335,0.045
'13:01.306',-0.340,0.045
'13:01.308',-0.365,0.065
'13:01.311',-0.375,0.070
'13:01.314',-0.360,0.060
'13:01.317',-0.355,0.045
'13:01.319',-0.370,0.040
'13:01.322',-0.365,0.050
'13:01.325',-0.360,0.075
'13:01.328',-0.360,0.085
'13:01.331',-0.360,0.070
'13:01.333',-0.370,0.060
'13:01.336',-0.395,0.045
'13:01.339',-0.405,0.045
'13:01.342',-0.405,0.065
'13:01.344',-0.395,0.085
'13:01.347',-0.385,0.090
'13:01.350',-0.390,0.080
'13:01.353',-0.405,0.075
'13:01.356',-0.425,0.075
'13:01.358',-0.425,0.075
'13:01.361',-0.385,0.085
'13:01.364',-0.385,0.070
'13:01.367',-0.380,0.070
'13:01.369',-0.400,0.060
'13:01.372',-0.425,0.070
'13:01.375',-0.415,0.070
'13:01.378',-0.400,0.085
'13:01.381',-0.380,0.085
'13:01.383',-0.375,0.075
'13:01.386',-0.390,0.065
'13:01.389',-0.395,0.050
'13:01.392',-0.385,0.075
'13:01.394',-0.375,0.080
'13:01.397',-0.350,0.085
'13:01.400',-0.365,0.075
'13:01.403',-0.375,0.035
'13:01.406',-0.385,0.030
'13:01.408',-0.380,0.065
'13:01.411',-0.365,0.075
'13:01.414',-0.355,0.060
'13:01.417',-0.360,0.045
'13:01.419',-0.395,0.035
'13:01.422',-0.395,0.040
'13:01.425',-0.385,0.070
'13:01.428',-0.360,0.055
'13:01.431',-0.350,0.065
'13:01.433',-0.370,0.035
'13:01.436',-0.405,0.030
'13:01.439',-0.405,0.030
'13:01.442',-0.385,0.045
'13:01.444',-0.365,0.045
'13:01.447',-0.350,0.045
'13:01.450',-0.355,0.025
'13:01.453',-0.365,0.015
'13:01.456',-0.370,0.020
'13:01.458',-0.385,0.020
'13:01.461',-0.375,0.040
'13:01.464',-0.375,0.035
'13:01.467',-0.385,0.035
'13:01.469',-0.385,0.010
'13:01.472',-0.380,0.010
'13:01.475',-0.365,0.005
'13:01.478',-0.370,0.010
'13:01.481',-0.370,0.030
'13:01.483',-0.395,0.010
'13:01.486',-0.390,0.000
'13:01.489',-0.395,0.010
'13:01.492',-0.395,0.015
'13:01.494',-0.380,0.030
'13:01.497',-0.360,0.025
'13:01.500',-0.370,0.025
'13:01.503',-0.400,-0.010
'13:01.506',-0.395,-0.010
'13:01.508',-0.390,-0.015
'13:01.511',-0.360,0.010
'13:01.514',-0.345,0.000
'13:01.517',-0.340,0.005
'13:01.519',-0.330,-0.015
'13:01.522',-0.340,-0.020
'13:01.525',-0.345,-0.005
'13:01.528',-0.330,0.000
'13:01.531',-0.310,0.005
'13:01.533',-0.310,-0.005
'13:01.536',-0.325,-0.010
'13:01.539',-0.360,0.000
'13:01.542',-0.345,0.000
'13:01.544',-0.320,0.000
'13:01.547',-0.300,-0.010
'13:01.550',-0.285,-0.015
'13:01.553',-0.290,-0.050
'13:01.556',-0.310,-0.045
'13:01.558',-0.315,-0.025
'13:01.561',-0.320,-0.015
'13:01.564',-0.305,-0.035
'13:01.567',-0.320,-0.045
'13:01.569',-0.320,-0.055
'13:01.572',-0.320,-0.055
'13:01.575',-0.305,-0.050
'13:01.578',-0.305,-0.030
'13:01.581',-0.300,-0.030
'13:01.583',-0.325,-0.045
'13:01.586',-0.350,-0.065
'13:01.589',-0.365,-0.055
'13:01.592',-0.355,-0.045
'13:01.594',-0.345,-0.060
'13:01.597',-0.350,-0.050
'13:01.600',-0.365,-0.070
'13:01.603',-0.405,-0.100
'13:01.606',-0.430,-0.085
'13:01.608',-0.420,-0.070
'13:01.611',-0.405,-0.055
'13:01.614',-0.385,-0.055
'13:01.617',-0.390,-0.080
'13:01.619',-0.390,-0.105
'13:01.622',-0.390,-0.090
'13:01.625',-0.405,-0.075
'13:01.628',-0.390,-0.055
'13:01.631',-0.390,-0.050
'13:01.633',-0.405,-0.050
'13:01.636',-0.405,-0.070
'13:01.639',-0.410,-0.070
'13:01.642',-0.405,-0.055
'13:01.644',-0.390,-0.040
'13:01.647',-0.375,-0.040
'13:01.650',-0.400,-0.055
'13:01.653',-0.420,-0.070
'13:01.656',-0.400,-0.050
'13:01.658',-0.390,-0.055
'13:01.661',-0.390,-0.035
'13:01.664',-0.365,-0.045
'13:01.667',-0.365,-0.050
'13:01.669',-0.375,-0.030
'13:01.672',-0.385,-0.015
'13:01.675',-0.395,0.015
'13:01.678',-0.400,0.050
'13:01.681',-0.380,0.030
'13:01.683',-0.355,-0.020
'13:01.686',-0.295,-0.110
'13:01.689',-0.200,-0.195
'13:01.692',-0.075,-0.295
'13:01.694',0.065,-0.390
'13:01.697',0.195,-0.525
'13:01.700',0.325,-0.625
'13:01.703',0.465,-0.720
'13:01.706',0.595,-0.805
'13:01.708',0.755,-0.880
'13:01.711',0.935,-0.925
'13:01.714',1.115,-0.980
'13:01.717',1.245,-1.060
'13:01.719',1.410,-1.105
'13:01.722',1.610,-1.140
'13:01.725',1.835,-1.130
'13:01.728',1.990,-1.140
'13:01.731',2.055,-1.145
'13:01.733',1.990,-1.155
'13:01.736',1.820,-1.175
'13:01.739',1.550,-1.150
'13:01.742',1.180,-1.130
'13:01.744',0.805,-1.090
'13:01.747',0.500,-1.060
'13:01.750',0.305,-1.030
'13:01.753',0.180,-0.995
'13:01.756',0.125,-0.915
'13:01.758',0.140,-0.835
'13:01.761',0.165,-0.735
'13:01.764',0.190,-0.650
'13:01.767',0.165,-0.585
'13:01.769',0.120,-0.545
'13:01.772',0.075,-0.485
'13:01.775',0.025,-0.425
'13:01.778',-0.010,-0.360
'13:01.781',-0.050,-0.320
'13:01.783',-0.115,-0.285
'13:01.786',-0.155,-0.255
'13:01.789',-0.195,-0.215
'13:01.792',-0.195,-0.160
'13:01.794',-0.200,-0.095
'13:01.797',-0.225,-0.085
'13:01.800',-0.270,-0.065
'13:01.803',-0.320,-0.050
'13:01.806',-0.365,-0.020
'13:01.808',-0.390,0.035
'13:01.811',-0.395,0.090
'13:01.814',-0.420,0.100
'13:01.817',-0.450,0.120
'13:01.819',-0.490,0.135
'13:01.822',-0.515,0.150
'13:01.825',-0.540,0.175
'13:01.828',-0.560,0.200
'13:01.831',-0.565,0.220
'13:01.833',-0.580,0.225
'13:01.836',-0.580,0.225
'13:01.839',-0.590,0.225
'13:01.842',-0.580,0.250
'13:01.844',-0.585,0.245
'13:01.847',-0.580,0.260
'13:01.850',-0.600,0.265
'13:01.853',-0.610,0.260
'13:01.856',-0.620,0.260
'13:01.858',-0.625,0.285
'13:01.861',-0.610,0.295
'13:01.864',-0.590,0.305
'13:01.867',-0.590,0.305
'13:01.869',-0.590,0.290
'13:01.872',-0.620,0.310
'13:01.875',-0.640,0.330
'13:01.878',-0.635,0.335
'13:01.881',-0.625,0.355
'13:01.883',-0.630,0.355
'13:01.886',-0.630,0.360
'13:01.889',-0.640,0.375
'13:01.892',-0.645,0.400
'13:01.894',-0.640,0.415
'13:01.897',-0.640,0.425
'13:01.900',-0.660,0.415
'13:01.903',-0.660,0.410
'13:01.906',-0.670,0.425
'13:01.908',-0.675,0.455
'13:01.911',-0.660,0.490
'13:01.914',-0.665,0.500
'13:01.917',-0.665,0.500
'13:01.919',-0.710,0.495
'13:01.922',-0.725,0.515
'13:01.925',-0.710,0.530
'13:01.928',-0.720,0.570
'13:01.931',-0.685,0.585
'13:01.933',-0.705,0.600
'13:01.936',-0.715,0.580
'13:01.939',-0.750,0.600
'13:01.942',-0.770,0.630
'13:01.944',-0.755,0.655
'13:01.947',-0.750,0.670
'13:01.950',-0.770,0.670
'13:01.953',-0.780,0.665
'13:01.956',-0.780,0.675
'13:01.958',-0.780,0.695
'13:01.961',-0.770,0.740
'13:01.964',-0.780,0.750
'13:01.967',-0.790,0.745
'13:01.969',-0.820,0.720
'13:01.972',-0.840,0.720
'13:01.975',-0.850,0.745
'13:01.978',-0.825,0.760
'13:01.981',-0.805,0.750
'13:01.983',-0.820,0.740
'13:01.986',-0.850,0.725
'13:01.989',-0.870,0.725
'13:01.992',-0.875,0.730
'13:01.994',-0.860,0.740
'13:01.997',-0.850,0.735
'13:02.000',-0.850,0.695
'13:02.003',-0.850,0.680
'13:02.006',-0.865,0.660
'13:02.008',-0.855,0.650
'13:02.011',-0.840,0.655
'13:02.014',-0.820,0.630
'13:02.017',-0.825,0.575
'13:02.019',-0.830,0.540
'13:02.022',-0.805,0.525
'13:02.025',-0.795,0.515
'13:02.028',-0.755,0.495
'13:02.031',-0.735,0.460
'13:02.033',-0.715,0.430
'13:02.036',-0.710,0.385
'13:02.039',-0.700,0.350
'13:02.042',-0.665,0.350
'13:02.044',-0.650,0.335
'13:02.047',-0.600,0.290
'13:02.050',-0.580,0.265
'13:02.053',-0.575,0.230
'13:02.056',-0.565,0.200
'13:02.058',-0.555,0.200
'13:02.061',-0.540,0.205
'13:02.064',-0.510,0.175
'13:02.067',-0.505,0.130
'13:02.069',-0.505,0.095
'13:02.072',-0.490,0.095
'13:02.075',-0.480,0.100
'13:02.078',-0.445,0.085
'13:02.081',-0.405,0.065
'13:02.083',-0.405,0.060
'13:02.086',-0.410,0.015
'13:02.089',-0.405,0.005
'13:02.092',-0.395,0.020
'13:02.094',-0.355,0.020
'13:02.097',-0.340,0.010
'13:02.100',-0.350,0.000
'13:02.103',-0.360,-0.020
'13:02.106',-0.380,-0.020
'13:02.108',-0.370,-0.015
'13:02.111',-0.360,0.000
'13:02.114',-0.375,-0.020
'13:02.117',-0.365,-0.020
'13:02.119',-0.365,-0.050
'13:02.122',-0.365,-0.045
'13:02.125',-0.360,-0.030
'13:02.128',-0.365,-0.015
'13:02.131',-0.350,-0.030
'13:02.133',-0.360,-0.050
'13:02.136',-0.350,-0.055
'13:02.139',-0.370,-0.050
'13:02.142',-0.370,-0.030
'13:02.144',-0.375,-0.015
'13:02.147',-0.350,-0.005
'13:02.150',-0.365,-0.015
'13:02.153',-0.385,-0.015
'13:02.156',-0.385,-0.040
'13:02.158',-0.375,-0.020
'13:02.161',-0.365,0.000
'13:02.164',-0.350,0.010
'13:02.167',-0.370,0.005
'13:02.169',-0.385,0.005
'13:02.172',-0.405,0.020
'13:02.175',-0.425,0.040
'13:02.178',-0.410,0.070
'13:02.181',-0.420,0.080
'13:02.183',-0.430,0.070
'13:02.186',-0.475,0.095
'13:02.189',-0.520,0.105
'13:02.192',-0.535,0.150
'13:02.194',-0.555,0.185
'13:02.197',-0.560,0.225
'13:02.200',-0.570,0.255
'13:02.203',-0.545,0.265
'13:02.206',-0.520,0.325
'13:02.208',-0.445,0.415
'13:02.211',-0.350,0.500
'13:02.214',-0.210,0.585
'13:02.217',-0.070,0.630
'13:02.219',0.110,0.650
'13:02.222',0.315,0.680
'13:02.225',0.530,0.725
'13:02.228',0.745,0.780
'13:02.231',0.950,0.770
'13:02.233',1.100,0.765
'13:02.236',1.200,0.745
'13:02.239',1.225,0.705
'13:02.242',1.185,0.700
'13:02.244',1.085,0.730
'13:02.247',0.980,0.750
'13:02.250',0.855,0.785
'13:02.253',0.700,0.825
'13:02.256',0.540,0.900
'13:02.258',0.385,0.935
'13:02.261',0.225,0.935
'13:02.264',0.055,0.905
'13:02.267',-0.145,0.845
'13:02.269',-0.325,0.805
'13:02.272',-0.455,0.755
'13:02.275',-0.540,0.715
'13:02.278',-0.605,0.675
'13:02.281',-0.670,0.595
'13:02.283',-0.755,0.490
'13:02.286',-0.805,0.375
'13:02.289',-0.860,0.270
'13:02.292',-0.835,0.185
'13:02.294',-0.795,0.110
'13:02.297',-0.710,0.055
'13:02.300',-0.630,-0.010
'13:02.303',-0.570,-0.060
'13:02.306',-0.520,-0.110
'13:02.308',-0.495,-0.095
'13:02.311',-0.465,-0.095
'13:02.314',-0.475,-0.090
'13:02.317',-0.485,-0.105
'13:02.319',-0.500,-0.125
'13:02.322',-0.525,-0.140
'13:02.325',-0.520,-0.145
'13:02.328',-0.515,-0.130
'13:02.331',-0.500,-0.140
'13:02.333',-0.495,-0.165
'13:02.336',-0.515,-0.190
'13:02.339',-0.530,-0.200
'13:02.342',-0.515,-0.175
'13:02.344',-0.505,-0.165
'13:02.347',-0.480,-0.185
'13:02.350',-0.495,-0.210
'13:02.353',-0.485,-0.245
'13:02.356',-0.485,-0.260
'13:02.358',-0.480,-0.225
'13:02.361',-0.475,-0.240
'13:02.364',-0.485,-0.225
'13:02.367',-0.485,-0.240
'13:02.369',-0.475,-0.255
'13:02.372',-0.460,-0.255
'13:02.375',-0.435,-0.255
'13:02.378',-0.405,-0.250
'13:02.381',-0.390,-0.260
'13:02.383',-0.380,-0.275
'13:02.386',-0.395,-0.295
'13:02.389',-0.420,-0.300
'13:02.392',-0.420,-0.290
'13:02.394',-0.410,-0.285
'13:02.397',-0.375,-0.280
'13:02.400',-0.370,-0.305
'13:02.403',-0.380,-0.335
'13:02.406',-0.380,-0.340
'13:02.408',-0.375,-0.335
'13:02.411',-0.380,-0.320
'13:02.414',-0.355,-0.340
'13:02.417',-0.355,-0.345
'13:02.419',-0.365,-0.360
'13:02.422',-0.380,-0.375
'13:02.425',-0.360,-0.380
'13:02.428',-0.355,-0.365
'13:02.431',-0.330,-0.370
'13:02.433',-0.335,-0.390
'13:02.436',-0.355,-0.410
'13:02.439',-0.360,-0.420
'13:02.442',-0.345,-0.420
'13:02.444',-0.325,-0.400
'13:02.447',-0.310,-0.415
'13:02.450',-0.300,-0.440
'13:02.453',-0.305,-0.480
'13:02.456',-0.320,-0.485
'13:02.458',-0.300,-0.465
'13:02.461',-0.275,-0.460
'13:02.464',-0.240,-0.475
'13:02.467',-0.230,-0.480
'13:02.469',-0.225,-0.500
'13:02.472',-0.230,-0.510
'13:02.475',-0.210,-0.495
'13:02.478',-0.185,-0.500
'13:02.481',-0.155,-0.510
'13:02.483',-0.145,-0.530
'13:02.486',-0.145,-0.545
'13:02.489',-0.135,-0.545
'13:02.492',-0.105,-0.530
'13:02.494',-0.065,-0.515
'13:02.497',-0.035,-0.520
'13:02.500',-0.015,-0.535
'13:02.503',-0.020,-0.540
'13:02.506',-0.010,-0.545
'13:02.508',0.030,-0.505
'13:02.511',0.065,-0.490
'13:02.514',0.105,-0.475
'13:02.517',0.115,-0.480
'13:02.519',0.120,-0.470
'13:02.522',0.115,-0.460
'13:02.525',0.130,-0.435
'13:02.528',0.160,-0.405
'13:02.531',0.175,-0.390
'13:02.533',0.185,-0.400
'13:02.536',0.170,-0.380
'13:02.539',0.170,-0.345
'13:02.542',0.150,-0.310
'13:02.544',0.165,-0.275
'13:02.547',0.155,-0.255
'13:02.550',0.135,-0.250
'13:02.553',0.110,-0.265
'13:02.556',0.085,-0.245
'13:02.558',0.065,-0.220
'13:02.561',0.050,-0.180
'13:02.564',0.020,-0.175
'13:02.567',-0.010,-0.165
'13:02.569',-0.050,-0.165
'13:02.572',-0.060,-0.150
'13:02.575',-0.070,-0.130
'13:02.578',-0.070,-0.120
'13:02.581',-0.075,-0.115
'13:02.583',-0.095,-0.120
'13:02.586',-0.135,-0.125
'13:02.589',-0.180,-0.120
'13:02.592',-0.190,-0.090
'13:02.594',-0.190,-0.080
'13:02.597',-0.175,-0.085
'13:02.600',-0.195,-0.090
'13:02.603',-0.220,-0.100
'13:02.606',-0.250,-0.105
'13:02.608',-0.260,-0.090
'13:02.611',-0.255,-0.070
'13:02.614',-0.245,-0.055
'13:02.617',-0.260,-0.090
'13:02.619',-0.275,-0.095
'13:02.622',-0.275,-0.090
'13:02.625',-0.260,-0.065
'13:02.628',-0.260,-0.055
'13:02.631',-0.255,-0.060
'13:02.633',-0.280,-0.070
'13:02.636',-0.285,-0.085
'13:02.639',-0.300,-0.070
'13:02.642',-0.295,-0.065
'13:02.644',-0.275,-0.065
'13:02.647',-0.265,-0.065
'13:02.650',-0.270,-0.070
'13:02.653',-0.315,-0.085
'13:02.656',-0.335,-0.090
'13:02.658',-0.330,-0.080
'13:02.661',-0.315,-0.065
'13:02.664',-0.295,-0.050
'13:02.667',-0.295,-0.045
'13:02.669',-0.305,-0.075
'13:02.672',-0.305,-0.070
'13:02.675',-0.320,-0.065
'13:02.678',-0.330,-0.055
'13:02.681',-0.315,-0.060
'13:02.683',-0.335,-0.060
'13:02.686',-0.325,-0.080
'13:02.689',-0.330,-0.085
'13:02.692',-0.320,-0.070
'13:02.694',-0.320,-0.055
'13:02.697',-0.310,-0.040
'13:02.700',-0.320,-0.065
'13:02.703',-0.330,-0.090
'13:02.706',-0.365,-0.085
'13:02.708',-0.355,-0.075
'13:02.711',-0.325,-0.060
'13:02.714',-0.315,-0.045
'13:02.717',-0.325,-0.065
'13:02.719',-0.360,-0.075
'13:02.722',-0.370,-0.085
'13:02.725',-0.355,-0.060
'13:02.728',-0.350,-0.055
'13:02.731',-0.335,-0.055
'13:02.733',-0.340,-0.085
'13:02.736',-0.350,-0.100
'13:02.739',-0.360,-0.085
'13:02.742',-0.370,-0.070
'13:02.744',-0.365,-0.060
'13:02.747',-0.360,-0.035
'13:02.750',-0.360,-0.070
'13:02.753',-0.370,-0.085
'13:02.756',-0.380,-0.085
'13:02.758',-0.375,-0.080
'13:02.761',-0.375,-0.070
'13:02.764',-0.350,-0.070
'13:02.767',-0.370,-0.065
'13:02.769',-0.370,-0.080
'13:02.772',-0.400,-0.085
'13:02.775',-0.390,-0.070
'13:02.778',-0.380,-0.055
'13:02.781',-0.360,-0.065
'13:02.783',-0.365,-0.080
'13:02.786',-0.395,-0.090
'13:02.789',-0.400,-0.090
'13:02.792',-0.405,-0.085
'13:02.794',-0.395,-0.065
'13:02.797',-0.375,-0.055
'13:02.800',-0.390,-0.075
'13:02.803',-0.385,-0.085
'13:02.806',-0.395,-0.080
'13:02.808',-0.395,-0.080
'13:02.811',-0.380,-0.050
'13:02.814',-0.365,-0.055
'13:02.817',-0.385,-0.085
'13:02.819',-0.400,-0.100
'13:02.822',-0.405,-0.090
'13:02.825',-0.395,-0.065
'13:02.828',-0.380,-0.060
'13:02.831',-0.365,-0.065
'13:02.833',-0.370,-0.085
'13:02.836',-0.375,-0.085
'13:02.839',-0.400,-0.090
'13:02.842',-0.405,-0.090
'13:02.844',-0.395,-0.070
'13:02.847',-0.380,-0.080
'13:02.850',-0.395,-0.075
'13:02.853',-0.375,-0.090
'13:02.856',-0.390,-0.090
'13:02.858',-0.395,-0.085
'13:02.861',-0.380,-0.070
'13:02.864',-0.380,-0.080
'13:02.867',-0.385,-0.090
'13:02.869',-0.385,-0.105
'13:02.872',-0.400,-0.120
'13:02.875',-0.390,-0.070
'13:02.878',-0.370,-0.070
'13:02.881',-0.355,-0.065
'13:02.883',-0.370,-0.080
'13:02.886',-0.375,-0.090
'13:02.889',-0.385,-0.095
'13:02.892',-0.385,-0.080
'13:02.894',-0.380,-0.080
'13:02.897',-0.370,-0.065
'13:02.900',-0.370,-0.075
'13:02.903',-0.405,-0.105
'13:02.906',-0.400,-0.100
'13:02.908',-0.390,-0.090
'13:02.911',-0.380,-0.055
'13:02.914',-0.385,-0.060
'13:02.917',-0.375,-0.060
'13:02.919',-0.410,-0.080
'13:02.922',-0.405,-0.100
'13:02.925',-0.385,-0.090
'13:02.928',-0.370,-0.065
'13:02.931',-0.365,-0.065
'13:02.933',-0.370,-0.085
'13:02.936',-0.385,-0.085
'13:02.939',-0.405,-0.085
'13:02.942',-0.405,-0.075
'13:02.944',-0.395,-0.055
'13:02.947',-0.370,-0.065
'13:02.950',-0.390,-0.090
'13:02.953',-0.395,-0.090
'13:02.956',-0.420,-0.085
'13:02.958',-0.410,-0.080
'13:02.961',-0.410,-0.060
'13:02.964',-0.390,-0.070
'13:02.967',-0.375,-0.080
'13:02.969',-0.385,-0.085
'13:02.972',-0.380,-0.105
'13:02.975',-0.385,-0.090
'13:02.978',-0.380,-0.080
'13:02.981',-0.370,-0.075
'13:02.983',-0.375,-0.085
'13:02.986',-0.410,-0.080
'13:02.989',-0.420,-0.080
'13:02.992',-0.405,-0.080
'13:02.994',-0.385,-0.060
'13:02.997',-0.360,-0.055
'13:03.000',-0.360,-0.070
'13:03.003',-0.370,-0.100
'13:03.006',-0.390,-0.095
'13:03.008',-0.390,-0.085
'13:03.011',-0.375,-0.065
'13:03.014',-0.375,-0.045
'13:03.017',-0.355,-0.075
'13:03.019',-0.375,-0.085
'13:03.022',-0.385,-0.090
'13:03.025',-0.390,-0.080
'13:03.028',-0.380,-0.075
'13:03.031',-0.360,-0.055
'13:03.033',-0.365,-0.075
'13:03.036',-0.375,-0.070
'13:03.039',-0.365,-0.085
'13:03.042',-0.355,-0.070
'13:03.044',-0.360,-0.060
'13:03.047',-0.345,-0.055
'13:03.050',-0.360,-0.075
'13:03.053',-0.375,-0.090
'13:03.056',-0.390,-0.095
'13:03.058',-0.395,-0.085
'13:03.061',-0.390,-0.060
'13:03.064',-0.370,-0.050
'13:03.067',-0.370,-0.065
'13:03.069',-0.385,-0.085
'13:03.072',-0.385,-0.080
'13:03.075',-0.395,-0.075
'13:03.078',-0.385,-0.055
'13:03.081',-0.380,-0.055
'13:03.083',-0.375,-0.075
'13:03.086',-0.380,-0.090
'13:03.089',-0.385,-0.095
'13:03.092',-0.375,-0.075
'13:03.094',-0.375,-0.065
'13:03.097',-0.350,-0.065
'13:03.100',-0.360,-0.065
'13:03.103',-0.380,-0.090
'13:03.106',-0.390,-0.105
'13:03.108',-0.385,-0.090
'13:03.111',-0.365,-0.075
'13:03.114',-0.355,-0.075
'13:03.117',-0.335,-0.080
'13:03.119',-0.350,-0.075
'13:03.122',-0.370,-0.095
'13:03.125',-0.375,-0.080
'13:03.128',-0.365,-0.070
'13:03.131',-0.355,-0.070
'13:03.133',-0.350,-0.080
'13:03.136',-0.365,-0.100
'13:03.139',-0.355,-0.075
'13:03.142',-0.355,-0.065
'13:03.144',-0.360,-0.055
'13:03.147',-0.340,-0.070
'13:03.150',-0.350,-0.070
'13:03.153',-0.360,-0.080
'13:03.156',-0.365,-0.090
'13:03.158',-0.350,-0.075
'13:03.161',-0.335,-0.050
'13:03.164',-0.315,-0.050
'13:03.167',-0.335,-0.065
'13:03.169',-0.370,-0.080
'13:03.172',-0.380,-0.080
'13:03.175',-0.370,-0.075
'13:03.178',-0.345,-0.060
'13:03.181',-0.340,-0.060
'13:03.183',-0.340,-0.070
'13:03.186',-0.355,-0.085
'13:03.189',-0.375,-0.070
'13:03.192',-0.390,-0.070
'13:03.194',-0.365,-0.040
'13:03.197',-0.345,-0.045
'13:03.200',-0.340,-0.080
'13:03.203',-0.355,-0.080
'13:03.206',-0.375,-0.075
'13:03.208',-0.375,-0.080
'13:03.211',-0.350,-0.060
'13:03.214',-0.345,-0.050
'13:03.217',-0.350,-0.060
'13:03.219',-0.345,-0.085
'13:03.222',-0.360,-0.090
'13:03.225',-0.365,-0.080
'13:03.228',-0.365,-0.080
'13:03.231',-0.350,-0.070
'13:03.233',-0.355,-0.075
'13:03.236',-0.360,-0.080
'13:03.239',-0.360,-0.075
'13:03.242',-0.345,-0.055
'13:03.244',-0.335,-0.050
'13:03.247',-0.320,-0.055
'13:03.250',-0.315,-0.070
'13:03.253',-0.325,-0.100
'13:03.256',-0.325,-0.105
'13:03.258',-0.315,-0.085
'13:03.261',-0.285,-0.060
'13:03.264',-0.270,-0.055
'13:03.267',-0.250,-0.080
'13:03.269',-0.265,-0.055
'13:03.272',-0.275,-0.070
'13:03.275',-0.295,-0.045
'13:03.278',-0.280,-0.035
'13:03.281',-0.270,-0.030
'13:03.283',-0.260,-0.050
'13:03.286',-0.260,-0.060
'13:03.289',-0.270,-0.070
'13:03.292',-0.265,-0.065
'13:03.294',-0.260,-0.070
'13:03.297',-0.240,-0.065
'13:03.300',-0.265,-0.090
'13:03.303',-0.260,-0.100
'13:03.306',-0.265,-0.110
'13:03.308',-0.260,-0.085
'13:03.311',-0.230,-0.075
'13:03.314',-0.225,-0.075
'13:03.317',-0.235,-0.075
'13:03.319',-0.265,-0.095
'13:03.322',-0.285,-0.095
'13:03.325',-0.285,-0.085
'13:03.328',-0.265,-0.065
'13:03.331',-0.260,-0.075
'13:03.333',-0.280,-0.085
'13:03.336',-0.310,-0.100
'13:03.339',-0.340,-0.100
'13:03.342',-0.335,-0.090
'13:03.344',-0.335,-0.095
'13:03.347',-0.330,-0.080
'13:03.350',-0.335,-0.100
'13:03.353',-0.345,-0.110
'13:03.356',-0.355,-0.100
'13:03.358',-0.360,-0.095
'13:03.361',-0.335,-0.080
'13:03.364',-0.330,-0.085
'13:03.367',-0.325,-0.095
'13:03.369',-0.340,-0.090
'13:03.372',-0.355,-0.095
'13:03.375',-0.365,-0.085
'13:03.378',-0.335,-0.065
'13:03.381',-0.305,-0.060
'13:03.383',-0.295,-0.065
'13:03.386',-0.300,-0.085
'13:03.389',-0.315,-0.085
'13:03.392',-0.345,-0.070
'13:03.394',-0.340,-0.060
'13:03.397',-0.340,-0.040
'13:03.400',-0.335,-0.020
'13:03.403',-0.355,-0.015
'13:03.406',-0.350,-0.005
'13:03.408',-0.355,0.000
'13:03.411',-0.350,-0.010
'13:03.414',-0.310,-0.030
'13:03.417',-0.250,-0.125
'13:03.419',-0.175,-0.220
'13:03.422',-0.055,-0.335
'13:03.425',0.065,-0.455
'13:03.428',0.185,-0.545
'13:03.431',0.345,-0.670
'13:03.433',0.495,-0.790
'13:03.436',0.635,-0.905
'13:03.439',0.835,-1.000
'13:03.442',1.090,-1.045
'13:03.444',1.355,-1.075
'13:03.447',1.600,-1.115
'13:03.450',1.840,-1.145
'13:03.453',2.035,-1.170
'13:03.456',2.170,-1.190
'13:03.458',2.235,-1.195
'13:03.461',2.260,-1.170
'13:03.464',2.260,-1.150
'13:03.467',2.225,-1.145
'13:03.469',2.115,-1.165
'13:03.472',1.840,-1.150
'13:03.475',1.400,-1.100
'13:03.478',0.930,-1.045
'13:03.481',0.570,-1.005
'13:03.483',0.395,-0.950
'13:03.486',0.325,-0.870
'13:03.489',0.290,-0.765
'13:03.492',0.270,-0.650
'13:03.494',0.230,-0.570
'13:03.497',0.195,-0.500
'13:03.500',0.125,-0.460
'13:03.503',0.050,-0.425
'13:03.506',-0.005,-0.380
'13:03.508',-0.045,-0.325
'13:03.511',-0.060,-0.265
'13:03.514',-0.065,-0.230
'13:03.517',-0.105,-0.220
'13:03.519',-0.145,-0.190
'13:03.522',-0.200,-0.155
'13:03.525',-0.195,-0.105
'13:03.528',-0.230,-0.050
'13:03.531',-0.270,-0.005
'13:03.533',-0.305,0.015
'13:03.536',-0.340,0.045
'13:03.539',-0.405,0.090
'13:03.542',-0.445,0.125
'13:03.544',-0.455,0.175
'13:03.547',-0.480,0.185
'13:03.550',-0.495,0.165
'13:03.553',-0.515,0.170
'13:03.556',-0.520,0.175
'13:03.558',-0.520,0.195
'13:03.561',-0.530,0.210
'13:03.564',-0.540,0.240
'13:03.567',-0.545,0.230
'13:03.569',-0.560,0.235
'13:03.572',-0.580,0.245
'13:03.575',-0.585,0.255
'13:03.578',-0.580,0.295
'13:03.581',-0.565,0.300
'13:03.583',-0.565,0.290
'13:03.586',-0.575,0.290
'13:03.589',-0.590,0.280
'13:03.592',-0.590,0.295
'13:03.594',-0.570,0.325
'13:03.597',-0.570,0.335
'13:03.600',-0.570,0.350
'13:03.603',-0.590,0.330
'13:03.606',-0.605,0.330
'13:03.608',-0.605,0.345
'13:03.611',-0.585,0.370
'13:03.614',-0.585,0.385
'13:03.617',-0.605,0.385
'13:03.619',-0.605,0.385
'13:03.622',-0.630,0.395
'13:03.625',-0.635,0.440
'13:03.628',-0.630,0.450
'13:03.631',-0.650,0.445
'13:03.633',-0.655,0.440
'13:03.636',-0.675,0.445
'13:03.639',-0.680,0.455
'13:03.642',-0.670,0.470
'13:03.644',-0.655,0.510
'13:03.647',-0.635,0.535
'13:03.650',-0.640,0.525
'13:03.653',-0.645,0.525
'13:03.656',-0.700,0.535
'13:03.658',-0.705,0.560
'13:03.661',-0.720,0.590
'13:03.664',-0.705,0.610
'13:03.667',-0.705,0.610
'13:03.669',-0.710,0.615
'13:03.672',-0.735,0.625
'13:03.675',-0.745,0.645
'13:03.678',-0.750,0.675
'13:03.681',-0.740,0.675
'13:03.683',-0.745,0.675
'13:03.686',-0.765,0.660
'13:03.689',-0.775,0.655
'13:03.692',-0.765,0.675
'13:03.694',-0.765,0.690
'13:03.697',-0.760,0.695
'13:03.700',-0.790,0.700
'13:03.703',-0.810,0.685
'13:03.706',-0.830,0.685
'13:03.708',-0.835,0.685
'13:03.711',-0.815,0.705
'13:03.714',-0.795,0.685
'13:03.717',-0.795,0.670
'13:03.719',-0.805,0.650
'13:03.722',-0.825,0.660
'13:03.725',-0.820,0.660
'13:03.728',-0.825,0.660
'13:03.731',-0.810,0.645
'13:03.733',-0.805,0.605
'13:03.736',-0.815,0.565
'13:03.739',-0.805,0.560
'13:03.742',-0.805,0.560
'13:03.744',-0.780,0.550
'13:03.747',-0.765,0.525
'13:03.750',-0.760,0.505
'13:03.753',-0.740,0.455
'13:03.756',-0.720,0.430
'13:03.758',-0.705,0.420
'13:03.761',-0.660,0.395
'13:03.764',-0.625,0.380
'13:03.767',-0.610,0.355
'13:03.769',-0.600,0.315
'13:03.772',-0.605,0.285
'13:03.775',-0.575,0.270
'13:03.778',-0.545,0.255
'13:03.781',-0.500,0.255
'13:03.783',-0.470,0.220
'13:03.786',-0.455,0.185
'13:03.789',-0.450,0.155
'13:03.792',-0.410,0.150
'13:03.794',-0.395,0.155
'13:03.797',-0.355,0.140
'13:03.800',-0.340,0.140
'13:03.803',-0.315,0.105
'13:03.806',-0.325,0.085
'13:03.808',-0.310,0.085
'13:03.811',-0.280,0.090
'13:03.814',-0.260,0.085
'13:03.817',-0.270,0.040
'13:03.819',-0.280,0.030
'13:03.822',-0.285,0.010
'13:03.825',-0.275,0.040
'13:03.828',-0.240,0.050
'13:03.831',-0.225,0.055
'13:03.833',-0.210,0.035
'13:03.836',-0.235,0.025
'13:03.839',-0.255,0.015
'13:03.842',-0.260,0.025
'13:03.844',-0.250,0.050
'13:03.847',-0.250,0.040
'13:03.850',-0.230,0.045
'13:03.853',-0.260,0.040
'13:03.856',-0.290,0.035
'13:03.858',-0.280,0.040
'13:03.861',-0.270,0.055
'13:03.864',-0.250,0.045
'13:03.867',-0.245,0.035
'13:03.869',-0.245,0.030
'13:03.872',-0.260,0.030
'13:03.875',-0.280,0.040
'13:03.878',-0.260,0.065
'13:03.881',-0.255,0.050
'13:03.883',-0.265,0.045
'13:03.886',-0.300,0.035
'13:03.889',-0.290,0.050
'13:03.892',-0.285,0.055
'13:03.894',-0.260,0.065
'13:03.897',-0.240,0.065
'13:03.900',-0.260,0.060
'13:03.903',-0.280,0.060
'13:03.906',-0.295,0.055
'13:03.908',-0.300,0.065
'13:03.911',-0.285,0.070
'13:03.914',-0.250,0.105
'13:03.917',-0.240,0.085
'13:03.919',-0.255,0.075
'13:03.922',-0.285,0.060
'13:03.925',-0.280,0.085
'13:03.928',-0.295,0.095
'13:03.931',-0.275,0.100
'13:03.933',-0.275,0.095
'13:03.936',-0.270,0.085
'13:03.939',-0.270,0.060
'13:03.942',-0.280,0.065
'13:03.944',-0.290,0.090
'13:03.947',-0.270,0.090
'13:03.950',-0.265,0.085
'13:03.953',-0.275,0.060
'13:03.956',-0.280,0.070
'13:03.958',-0.260,0.075
'13:03.961',-0.245,0.075
'13:03.964',-0.235,0.080
'13:03.967',-0.245,0.075
'13:03.969',-0.275,0.070
'13:03.972',-0.290,0.075
'13:03.975',-0.280,0.080
'13:03.978',-0.240,0.090
'13:03.981',-0.215,0.075
'13:03.983',-0.220,0.075
'13:03.986',-0.250,0.040
'13:03.989',-0.275,0.030
'13:03.992',-0.265,0.050
'13:03.994',-0.265,0.060
'13:03.997',-0.215,0.055
'13:04.000',-0.225,0.045
'13:04.003',-0.250,0.020
'13:04.006',-0.265,0.030
'13:04.008',-0.275,0.025
'13:04.011',-0.275,0.040
'13:04.014',-0.255,0.045
'13:04.017',-0.230,0.025
'13:04.019',-0.245,0.015
'13:04.022',-0.285,0.015
'13:04.025',-0.290,0.025
'13:04.028',-0.280,0.035
'13:04.031',-0.265,0.040
'13:04.033',-0.260,0.025
'13:04.036',-0.265,0.005
'13:04.039',-0.270,-0.010
'13:04.042',-0.270,0.015
'13:04.044',-0.260,0.020
'13:04.047',-0.225,0.030
'13:04.050',-0.240,0.010
'13:04.053',-0.245,-0.025
'13:04.056',-0.265,-0.020
'13:04.058',-0.250,-0.020
'13:04.061',-0.220,-0.010
'13:04.064',-0.190,0.005
'13:04.067',-0.190,0.005
'13:04.069',-0.220,-0.020
'13:04.072',-0.250,-0.020
'13:04.075',-0.240,-0.010
'13:04.078',-0.230,0.010
'13:04.081',-0.205,0.000
'13:04.083',-0.190,-0.005
'13:04.086',-0.190,-0.025
'13:04.089',-0.195,-0.035
'13:04.092',-0.200,-0.020
'13:04.094',-0.210,-0.005
'13:04.097',-0.180,0.000
'13:04.100',-0.175,-0.020
'13:04.103',-0.185,-0.040
'13:04.106',-0.205,-0.040
'13:04.108',-0.205,-0.050
'13:04.111',-0.195,-0.035
'13:04.114',-0.175,-0.040
'13:04.117',-0.185,-0.040
'13:04.119',-0.205,-0.055
'13:04.122',-0.205,-0.050
'13:04.125',-0.225,-0.035
'13:04.128',-0.230,-0.030
'13:04.131',-0.230,-0.035
'13:04.133',-0.230,-0.040
'13:04.136',-0.255,-0.050
'13:04.139',-0.275,-0.060
'13:04.142',-0.270,-0.065
'13:04.144',-0.275,-0.055
'13:04.147',-0.260,-0.055
'13:04.150',-0.280,-0.065
'13:04.153',-0.295,-0.090
'13:04.156',-0.295,-0.095
'13:04.158',-0.300,-0.075
'13:04.161',-0.290,-0.070
'13:04.164',-0.260,-0.060
'13:04.167',-0.265,-0.065
'13:04.169',-0.280,-0.055
'13:04.172',-0.285,-0.060
'13:04.175',-0.300,-0.065
'13:04.178',-0.285,-0.055
'13:04.181',-0.280,-0.040
'13:04.183',-0.285,-0.050
'13:04.186',-0.285,-0.055
'13:04.189',-0.280,-0.055
'13:04.192',-0.290,-0.070
'13:04.194',-0.295,-0.035
'13:04.197',-0.280,-0.055
'13:04.200',-0.290,-0.040
'13:04.203',-0.295,-0.065
'13:04.206',-0.320,-0.050
'13:04.208',-0.300,-0.050
'13:04.211',-0.285,-0.015
'13:04.214',-0.260,0.005
'13:04.217',-0.250,0.010
'13:04.219',-0.265,0.030
'13:04.222',-0.295,0.010
'13:04.225',-0.295,0.000
'13:04.228',-0.230,-0.025
'13:04.231',-0.120,-0.075
'13:04.233',0.005,-0.170
'13:04.236',0.125,-0.285
'13:04.239',0.250,-0.400
'13:04.242',0.380,-0.500
'13:04.244',0.535,-0.595
'13:04.247',0.705,-0.680
'13:04.250',0.910,-0.795
'13:04.253',1.110,-0.855
'13:04.256',1.300,-0.900
'13:04.258',1.495,-0.930
'13:04.261',1.655,-0.940
'13:04.264',1.810,-0.965
'13:04.267',1.955,-1.010
'13:04.269',2.075,-1.045
'13:04.272',2.200,-1.090
'13:04.275',2.240,-1.085
'13:04.278',2.220,-1.090
'13:04.281',2.105,-1.085
'13:04.283',1.845,-1.095
'13:04.286',1.445,-1.095
'13:04.289',1.020,-1.070
'13:04.292',0.665,-1.010
'13:04.294',0.430,-0.955
'13:04.297',0.310,-0.900
'13:04.300',0.245,-0.870
'13:04.303',0.210,-0.785
'13:04.306',0.195,-0.725
'13:04.308',0.180,-0.625
'13:04.311',0.165,-0.550
'13:04.314',0.130,-0.495
'13:04.317',0.095,-0.450
'13:04.319',0.050,-0.435
'13:04.322',0.020,-0.385
'13:04.325',-0.010,-0.320
'13:04.328',-0.040,-0.260
'13:04.331',-0.080,-0.225
'13:04.333',-0.110,-0.185
'13:04.336',-0.155,-0.165
'13:04.339',-0.190,-0.115
'13:04.342',-0.225,-0.060
'13:04.344',-0.250,-0.020
'13:04.347',-0.270,0.035
'13:04.350',-0.295,0.055
'13:04.353',-0.360,0.065
'13:04.356',-0.400,0.075
'13:04.358',-0.425,0.130
'13:04.361',-0.425,0.160
'13:04.364',-0.430,0.190
'13:04.367',-0.445,0.180
'13:04.369',-0.450,0.180
'13:04.372',-0.460,0.195
'13:04.375',-0.490,0.215
'13:04.378',-0.505,0.235
'13:04.381',-0.505,0.255
'13:04.383',-0.500,0.235
'13:04.386',-0.510,0.230
'13:04.389',-0.510,0.245
'13:04.392',-0.510,0.280
'13:04.394',-0.505,0.285
'13:04.397',-0.495,0.295
'13:04.400',-0.510,0.270
'13:04.403',-0.520,0.275
'13:04.406',-0.525,0.290
'13:04.408',-0.525,0.310
'13:04.411',-0.515,0.330
'13:04.414',-0.485,0.345
'13:04.417',-0.505,0.350
'13:04.419',-0.520,0.335
'13:04.422',-0.535,0.355
'13:04.425',-0.545,0.375
'13:04.428',-0.540,0.390
'13:04.431',-0.520,0.390
'13:04.433',-0.530,0.395
'13:04.436',-0.545,0.375
'13:04.439',-0.555,0.400
'13:04.442',-0.550,0.435
'13:04.444',-0.550,0.460
'13:04.447',-0.540,0.455
'13:04.450',-0.535,0.455
'13:04.453',-0.555,0.465
'13:04.456',-0.575,0.475
'13:04.458',-0.580,0.505
'13:04.461',-0.575,0.545
'13:04.464',-0.575,0.555
'13:04.467',-0.585,0.555
'13:04.469',-0.610,0.560
'13:04.472',-0.610,0.580
'13:04.475',-0.605,0.585
'13:04.478',-0.595,0.600
'13:04.481',-0.575,0.610
'13:04.483',-0.580,0.615
'13:04.486',-0.600,0.625
'13:04.489',-0.620,0.630
'13:04.492',-0.655,0.660
'13:04.494',-0.660,0.675
'13:04.497',-0.645,0.690
'13:04.500',-0.640,0.695
'13:04.503',-0.660,0.705
'13:04.506',-0.690,0.705
'13:04.508',-0.685,0.720
'13:04.511',-0.675,0.725
'13:04.514',-0.680,0.745
'13:04.517',-0.695,0.725
'13:04.519',-0.700,0.720
'13:04.522',-0.710,0.720
'13:04.525',-0.720,0.740
'13:04.528',-0.690,0.745
'13:04.531',-0.685,0.740
'13:04.533',-0.705,0.730
'13:04.536',-0.715,0.710
'13:04.539',-0.740,0.680
'13:04.542',-0.735,0.690
'13:04.544',-0.730,0.695
'13:04.547',-0.705,0.665
'13:04.550',-0.715,0.645
'13:04.553',-0.735,0.625
'13:04.556',-0.725,0.580
'13:04.558',-0.715,0.565
'13:04.561',-0.690,0.560
'13:04.564',-0.655,0.530
'13:04.567',-0.645,0.490
'13:04.569',-0.625,0.450
'13:04.572',-0.620,0.415
'13:04.575',-0.595,0.405
'13:04.578',-0.565,0.385
'13:04.581',-0.525,0.360
'13:04.583',-0.520,0.310
'13:04.586',-0.505,0.290
'13:04.589',-0.490,0.245
'13:04.592',-0.465,0.235
'13:04.594',-0.435,0.235
'13:04.597',-0.405,0.220
'13:04.600',-0.390,0.185
'13:04.603',-0.375,0.150
'13:04.606',-0.375,0.125
'13:04.608',-0.365,0.105
'13:04.611',-0.345,0.115
'13:04.614',-0.310,0.095
'13:04.617',-0.310,0.075
'13:04.619',-0.305,0.045
'13:04.622',-0.305,0.020
'13:04.625',-0.285,0.045
'13:04.628',-0.280,0.045
'13:04.631',-0.270,0.015
'13:04.633',-0.270,0.010
'13:04.636',-0.275,-0.015
'13:04.639',-0.285,-0.010
'13:04.642',-0.265,-0.015
'13:04.644',-0.260,0.000
'13:04.647',-0.255,0.005
'13:04.650',-0.250,0.000
'13:04.653',-0.265,-0.035
'13:04.656',-0.270,-0.045
'13:04.658',-0.270,-0.025
'13:04.661',-0.260,-0.020
'13:04.664',-0.245,-0.010
'13:04.667',-0.240,-0.010
'13:04.669',-0.255,-0.030
'13:04.672',-0.275,-0.040
'13:04.675',-0.275,-0.015
'13:04.678',-0.275,-0.015
'13:04.681',-0.260,-0.005
'13:04.683',-0.270,-0.020
'13:04.686',-0.255,-0.035
'13:04.689',-0.280,-0.040
'13:04.692',-0.295,-0.020
'13:04.694',-0.275,-0.020
'13:04.697',-0.280,0.005
'13:04.700',-0.280,-0.005
'13:04.703',-0.285,-0.025
'13:04.706',-0.310,-0.025
'13:04.708',-0.300,-0.015
'13:04.711',-0.295,-0.020
'13:04.714',-0.290,-0.005
'13:04.717',-0.285,-0.005
'13:04.719',-0.305,-0.020
'13:04.722',-0.305,-0.020
'13:04.725',-0.295,-0.005
'13:04.728',-0.275,0.020
'13:04.731',-0.270,0.010
'13:04.733',-0.285,0.000
'13:04.736',-0.315,-0.035
'13:04.739',-0.300,-0.025
'13:04.742',-0.310,0.000
'13:04.744',-0.290,0.010
'13:04.747',-0.265,0.030
'13:04.750',-0.280,0.015
'13:04.753',-0.290,-0.005
'13:04.756',-0.300,-0.005
'13:04.758',-0.300,-0.010
'13:04.761',-0.280,0.000
'13:04.764',-0.260,0.010
'13:04.767',-0.270,0.010
'13:04.769',-0.280,-0.005
'13:04.772',-0.280,-0.010
'13:04.775',-0.300,0.000
'13:04.778',-0.290,0.010
'13:04.781',-0.275,0.015
'13:04.783',-0.285,0.000
'13:04.786',-0.285,-0.015
'13:04.789',-0.285,0.000
'13:04.792',-0.290,-0.005
'13:04.794',-0.275,0.020
'13:04.797',-0.255,0.015
'13:04.800',-0.260,-0.010
'13:04.803',-0.275,-0.025
'13:04.806',-0.280,-0.035
'13:04.808',-0.285,-0.020
'13:04.811',-0.280,0.025
'13:04.814',-0.260,0.020
'13:04.817',-0.270,0.015
'13:04.819',-0.290,-0.025
'13:04.822',-0.300,-0.025
'13:04.825',-0.305,-0.020
'13:04.828',-0.285,-0.005
'13:04.831',-0.260,-0.005
'13:04.833',-0.260,-0.025
'13:04.836',-0.280,-0.050
'13:04.839',-0.290,-0.030
'13:04.842',-0.300,-0.030
'13:04.844',-0.265,-0.025
'13:04.847',-0.245,-0.015
'13:04.850',-0.255,-0.025
'13:04.853',-0.280,-0.040
'13:04.856',-0.290,-0.035
'13:04.858',-0.290,-0.020
'13:04.861',-0.275,0.000
'13:04.864',-0.270,0.000
'13:04.867',-0.255,-0.010
'13:04.869',-0.245,-0.035
'13:04.872',-0.265,-0.055
'13:04.875',-0.250,-0.020
'13:04.878',-0.235,-0.015
'13:04.881',-0.235,-0.025
'13:04.883',-0.215,-0.025
'13:04.886',-0.220,-0.055
'13:04.889',-0.210,-0.050
'13:04.892',-0.230,-0.030
'13:04.894',-0.230,-0.025
'13:04.897',-0.205,-0.010
'13:04.900',-0.205,-0.030
'13:04.903',-0.195,-0.045
'13:04.906',-0.195,-0.045
'13:04.908',-0.190,-0.035
'13:04.911',-0.185,-0.045
'13:04.914',-0.175,-0.025
'13:04.917',-0.185,-0.050
'13:04.919',-0.195,-0.070
'13:04.922',-0.195,-0.070
'13:04.925',-0.185,-0.065
'13:04.928',-0.175,-0.040
'13:04.931',-0.160,-0.040
'13:04.933',-0.155,-0.045
'13:04.936',-0.190,-0.055
'13:04.939',-0.210,-0.085
'13:04.942',-0.230,-0.075
'13:04.944',-0.205,-0.060
'13:04.947',-0.205,-0.035
'13:04.950',-0.215,-0.065
'13:04.953',-0.240,-0.080
'13:04.956',-0.275,-0.095
'13:04.958',-0.295,-0.090
'13:04.961',-0.275,-0.070
'13:04.964',-0.265,-0.080
'13:04.967',-0.260,-0.080
'13:04.969',-0.245,-0.085
'13:04.972',-0.245,-0.095
'13:04.975',-0.245,-0.090
'13:04.978',-0.270,-0.065
'13:04.981',-0.265,-0.065
'13:04.983',-0.260,-0.070
'13:04.986',-0.255,-0.085
'13:04.989',-0.270,-0.085
'13:04.992',-0.265,-0.070
'13:04.994',-0.260,-0.050
'13:04.997',-0.255,-0.035
'13:05.000',-0.255,-0.055
'13:05.003',-0.250,-0.065
'13:05.006',-0.265,-0.075
'13:05.008',-0.285,-0.045
'13:05.011',-0.270,-0.035
'13:05.014',-0.265,-0.040
'13:05.017',-0.280,-0.050
'13:05.019',-0.260,-0.050
'13:05.022',-0.275,-0.060
'13:05.025',-0.260,-0.025
'13:05.028',-0.250,0.025
'13:05.031',-0.230,0.020
'13:05.033',-0.230,0.005
'13:05.036',-0.215,-0.075
'13:05.039',-0.135,-0.160
'13:05.042',-0.005,-0.255
'13:05.044',0.160,-0.370
'13:05.047',0.315,-0.485
'13:05.050',0.450,-0.640
'13:05.053',0.575,-0.765
'13:05.056',0.710,-0.860
'13:05.058',0.905,-0.925
'13:05.061',1.130,-0.965
'13:05.064',1.375,-1.015
'13:05.067',1.590,-1.055
'13:05.069',1.755,-1.105
'13:05.072',1.910,-1.120
'13:05.075',2.075,-1.115
'13:05.078',2.220,-1.110
'13:05.081',2.295,-1.100
'13:05.083',2.320,-1.100
'13:05.086',2.250,-1.110
'13:05.089',2.095,-1.095
'13:05.092',1.760,-1.065
'13:05.094',1.305,-1.020
'13:05.097',0.875,-0.965
'13:05.100',0.570,-0.930
'13:05.103',0.395,-0.885
'13:05.106',0.320,-0.815
'13:05.108',0.295,-0.705
'13:05.111',0.285,-0.630
'13:05.114',0.265,-0.545
'13:05.117',0.225,-0.495
'13:05.119',0.155,-0.475
'13:05.122',0.085,-0.460
'13:05.125',0.030,-0.395
'13:05.128',0.020,-0.345
'13:05.131',-0.010,-0.295
'13:05.133',-0.045,-0.250
'13:05.136',-0.085,-0.205
'13:05.139',-0.100,-0.160
'13:05.142',-0.150,-0.110
'13:05.144',-0.165,-0.050
'13:05.147',-0.175,-0.005
'13:05.150',-0.205,0.020
'13:05.153',-0.250,0.050
'13:05.156',-0.305,0.090
'13:05.158',-0.350,0.150
'13:05.161',-0.365,0.180
'13:05.164',-0.380,0.190
'13:05.167',-0.395,0.200
'13:05.169',-0.425,0.200
'13:05.172',-0.460,0.205
'13:05.175',-0.455,0.215
'13:05.178',-0.460,0.255
'13:05.181',-0.450,0.255
'13:05.183',-0.460,0.255
'13:05.186',-0.470,0.255
'13:05.189',-0.480,0.250
'13:05.192',-0.485,0.275
'13:05.194',-0.470,0.295
'13:05.197',-0.455,0.315
'13:05.200',-0.470,0.320
'13:05.203',-0.490,0.310
'13:05.206',-0.500,0.310
'13:05.208',-0.500,0.330
'13:05.211',-0.475,0.360
'13:05.214',-0.470,0.355
'13:05.217',-0.480,0.365
'13:05.219',-0.500,0.350
'13:05.222',-0.520,0.370
'13:05.225',-0.515,0.395
'13:05.228',-0.515,0.420
'13:05.231',-0.490,0.420
'13:05.233',-0.480,0.430
'13:05.236',-0.505,0.420
'13:05.239',-0.515,0.410
'13:05.242',-0.535,0.445
'13:05.244',-0.545,0.465
'13:05.247',-0.535,0.510
'13:05.250',-0.535,0.505
'13:05.253',-0.560,0.515
'13:05.256',-0.565,0.520
'13:05.258',-0.570,0.540
'13:05.261',-0.570,0.575
'13:05.264',-0.565,0.590
'13:05.267',-0.580,0.595
'13:05.269',-0.615,0.605
'13:05.272',-0.620,0.615
'13:05.275',-0.625,0.640
'13:05.278',-0.610,0.670
'13:05.281',-0.605,0.695
'13:05.283',-0.635,0.675
'13:05.286',-0.655,0.680
'13:05.289',-0.685,0.675
'13:05.292',-0.690,0.700
'13:05.294',-0.690,0.720
'13:05.297',-0.670,0.750
'13:05.300',-0.665,0.745
'13:05.303',-0.675,0.735
'13:05.306',-0.690,0.735
'13:05.308',-0.705,0.725
'13:05.311',-0.705,0.745
'13:05.314',-0.705,0.745
'13:05.317',-0.720,0.725
'13:05.319',-0.715,0.700
'13:05.322',-0.730,0.695
'13:05.325',-0.725,0.690
'13:05.328',-0.715,0.700
'13:05.331',-0.710,0.685
'13:05.333',-0.705,0.655
'13:05.336',-0.705,0.630
'13:05.339',-0.715,0.600
'13:05.342',-0.710,0.600
'13:05.344',-0.675,0.585
'13:05.347',-0.650,0.555
'13:05.350',-0.650,0.515
'13:05.353',-0.650,0.470
'13:05.356',-0.640,0.455
'13:05.358',-0.615,0.405
'13:05.361',-0.560,0.395
'13:05.364',-0.515,0.375
'13:05.367',-0.495,0.325
'13:05.369',-0.495,0.280
'13:05.372',-0.460,0.245
'13:05.375',-0.455,0.230
'13:05.378',-0.415,0.225
'13:05.381',-0.345,0.210
'13:05.383',-0.325,0.165
'13:05.386',-0.320,0.135
'13:05.389',-0.325,0.120
'13:05.392',-0.315,0.105
'13:05.394',-0.285,0.100
'13:05.397',-0.265,0.090
'13:05.400',-0.255,0.085
'13:05.403',-0.255,0.050
'13:05.406',-0.250,0.025
'13:05.408',-0.230,0.045
'13:05.411',-0.220,0.050
'13:05.414',-0.225,0.035
'13:05.417',-0.215,0.030
'13:05.419',-0.210,0.005
'13:05.422',-0.220,-0.005
'13:05.425',-0.220,-0.010
'13:05.428',-0.210,0.030
'13:05.431',-0.195,0.010
'13:05.433',-0.190,0.005
'13:05.436',-0.220,-0.015
'13:05.439',-0.240,-0.025
'13:05.442',-0.220,0.005
'13:05.444',-0.200,0.005
'13:05.447',-0.185,0.025
'13:05.450',-0.200,0.010
'13:05.453',-0.235,-0.015
'13:05.456',-0.240,-0.020
'13:05.458',-0.235,-0.020
'13:05.461',-0.215,0.010
'13:05.464',-0.205,0.015
'13:05.467',-0.190,0.010
'13:05.469',-0.215,0.005
'13:05.472',-0.225,-0.005
'13:05.475',-0.235,0.015
'13:05.478',-0.215,0.030
'13:05.481',-0.200,0.020
'13:05.483',-0.200,0.030
'13:05.486',-0.205,0.020
'13:05.489',-0.235,0.005
'13:05.492',-0.245,0.020
'13:05.494',-0.235,0.020
'13:05.497',-0.220,0.035
'13:05.500',-0.215,0.040
'13:05.503',-0.215,0.015
'13:05.506',-0.220,0.010
'13:05.508',-0.220,0.025
'13:05.511',-0.220,0.045
'13:05.514',-0.220,0.055
'13:05.517',-0.230,0.030
'13:05.519',-0.245,0.020
'13:05.522',-0.265,0.010
'13:05.525',-0.260,0.030
'13:05.528',-0.235,0.040
'13:05.531',-0.220,0.060
'13:05.533',-0.235,0.050
'13:05.536',-0.265,0.030
'13:05.539',-0.270,0.025
'13:05.542',-0.255,0.030
'13:05.544',-0.235,0.040
'13:05.547',-0.195,0.030
'13:05.550',-0.205,0.025
'13:05.553',-0.220,0.030
'13:05.556',-0.240,0.025
'13:05.558',-0.265,0.025
'13:05.561',-0.245,0.035
'13:05.564',-0.230,0.040
'13:05.567',-0.225,0.035
'13:05.569',-0.225,0.015
'13:05.572',-0.225,0.010
'13:05.575',-0.230,0.020
'13:05.578',-0.215,0.025
'13:05.581',-0.210,0.045
'13:05.583',-0.205,0.015
'13:05.586',-0.225,0.000
'13:05.589',-0.225,-0.015
'13:05.592',-0.235,0.005
'13:05.594',-0.235,0.010
'13:05.597',-0.235,0.025
'13:05.600',-0.240,0.020
'13:05.603',-0.240,0.000
'13:05.606',-0.235,-0.015
'13:05.608',-0.220,-0.015
'13:05.611',-0.205,0.005
'13:05.614',-0.190,0.000
'13:05.617',-0.220,-0.005
'13:05.619',-0.245,-0.010
'13:05.622',-0.260,-0.020
'13:05.625',-0.240,0.000
'13:05.628',-0.220,0.005
'13:05.631',-0.210,0.020
'13:05.633',-0.220,0.005
'13:05.636',-0.230,-0.020
'13:05.639',-0.240,-0.020
'13:05.642',-0.230,-0.010
'13:05.644',-0.215,0.000
'13:05.647',-0.185,0.030
'13:05.650',-0.180,0.005
'13:05.653',-0.185,-0.010
'13:05.656',-0.205,-0.025
'13:05.658',-0.195,-0.040
'13:05.661',-0.185,-0.005
'13:05.664',-0.160,0.010
'13:05.667',-0.150,0.000
'13:05.669',-0.160,-0.005
'13:05.672',-0.170,-0.015
'13:05.675',-0.155,-0.015
'13:05.678',-0.155,-0.005
'13:05.681',-0.125,-0.015
'13:05.683',-0.140,-0.020
'13:05.686',-0.140,-0.025
'13:05.689',-0.150,-0.040
'13:05.692',-0.150,-0.020
'13:05.694',-0.135,0.000
'13:05.697',-0.140,-0.010
'13:05.700',-0.155,-0.025
'13:05.703',-0.155,-0.050
'13:05.706',-0.170,-0.060
'13:05.708',-0.155,-0.050
'13:05.711',-0.145,-0.010
'13:05.714',-0.135,-0.010
'13:05.717',-0.145,-0.025
'13:05.719',-0.175,-0.040
'13:05.722',-0.185,-0.045
'13:05.725',-0.175,-0.035
'13:05.728',-0.160,-0.040
'13:05.731',-0.160,-0.015
'13:05.733',-0.190,-0.035
'13:05.736',-0.225,-0.040
'13:05.739',-0.240,-0.065
'13:05.742',-0.240,-0.055
'13:05.744',-0.230,-0.040
'13:05.747',-0.215,-0.045
'13:05.750',-0.205,-0.050
'13:05.753',-0.215,-0.070
'13:05.756',-0.220,-0.065
'13:05.758',-0.240,-0.040
'13:05.761',-0.225,-0.045
'13:05.764',-0.215,-0.015
'13:05.767',-0.225,-0.040
'13:05.769',-0.235,-0.050
'13:05.772',-0.240,-0.055
'13:05.775',-0.255,-0.045
'13:05.778',-0.260,-0.025
'13:05.781',-0.230,-0.010
'13:05.783',-0.215,-0.025
'13:05.786',-0.215,-0.045
'13:05.789',-0.230,-0.045
'13:05.792',-0.245,-0.035
'13:05.794',-0.220,-0.025
'13:05.797',-0.200,-0.030
'13:05.800',-0.215,-0.030
'13:05.803',-0.225,-0.020
'13:05.806',-0.225,-0.005
'13:05.808',-0.220,0.025
'13:05.811',-0.215,0.010
'13:05.814',-0.180,-0.025
'13:05.817',-0.120,-0.110
'13:05.819',-0.025,-0.255
'13:05.822',0.110,-0.395
'13:05.825',0.260,-0.510
'13:05.828',0.390,-0.640
'13:05.831',0.530,-0.740
'13:05.833',0.650,-0.860
'13:05.836',0.810,-0.965
'13:05.839',1.010,-1.045
'13:05.842',1.245,-1.090
'13:05.844',1.475,-1.100
'13:05.847',1.675,-1.120
'13:05.850',1.850,-1.130
'13:05.853',2.015,-1.140
'13:05.856',2.160,-1.105
'13:05.858',2.255,-1.080
'13:05.861',2.300,-1.065
'13:05.864',2.280,-1.035
'13:05.867',2.105,-1.035
'13:05.869',1.740,-1.015
'13:05.872',1.295,-0.975
'13:05.875',0.875,-0.920
'13:05.878',0.600,-0.860
'13:05.881',0.455,-0.775
'13:05.883',0.380,-0.720
'13:05.886',0.340,-0.655
'13:05.889',0.310,-0.590
'13:05.892',0.285,-0.520
'13:05.894',0.260,-0.455
'13:05.897',0.225,-0.405
'13:05.900',0.165,-0.375
'13:05.903',0.100,-0.350
'13:05.906',0.050,-0.310
'13:05.908',0.000,-0.240
'13:05.911',0.000,-0.190
'13:05.914',-0.025,-0.135
'13:05.917',-0.055,-0.110
'13:05.919',-0.100,-0.070
'13:05.922',-0.155,-0.045
'13:05.925',-0.190,0.000
'13:05.928',-0.220,0.060
'13:05.931',-0.215,0.090
'13:05.933',-0.250,0.125
'13:05.936',-0.300,0.130
'13:05.939',-0.360,0.140
'13:05.942',-0.375,0.185
'13:05.944',-0.390,0.230
'13:05.947',-0.405,0.255
'13:05.950',-0.385,0.250
'13:05.953',-0.400,0.235
'13:05.956',-0.420,0.240
'13:05.958',-0.440,0.265
'13:05.961',-0.440,0.270
'13:05.964',-0.440,0.315
'13:05.967',-0.445,0.310
'13:05.969',-0.470,0.300
'13:05.972',-0.460,0.310
'13:05.975',-0.460,0.335
'13:05.978',-0.455,0.350
'13:05.981',-0.460,0.360
'13:05.983',-0.465,0.370
'13:05.986',-0.475,0.350
'13:05.989',-0.475,0.365
'13:05.992',-0.480,0.380
'13:05.994',-0.485,0.430
'13:05.997',-0.475,0.445
'13:06.000',-0.490,0.430
'13:06.003',-0.500,0.420
'13:06.006',-0.525,0.430
'13:06.008',-0.520,0.460
'13:06.011',-0.500,0.485
'13:06.014',-0.490,0.505
'13:06.017',-0.505,0.510
'13:06.019',-0.535,0.495
'13:06.022',-0.550,0.510
'13:06.025',-0.555,0.540
'13:06.028',-0.540,0.570
'13:06.031',-0.555,0.590
'13:06.033',-0.560,0.605
'13:06.036',-0.580,0.610
'13:06.039',-0.590,0.615
'13:06.042',-0.610,0.660
'13:06.044',-0.620,0.690
'13:06.047',-0.590,0.700
'13:06.050',-0.605,0.705
'13:06.053',-0.635,0.700
'13:06.056',-0.645,0.710
'13:06.058',-0.660,0.750
'13:06.061',-0.660,0.755
'13:06.064',-0.655,0.775
'13:06.067',-0.660,0.775
'13:06.069',-0.675,0.760
'13:06.072',-0.700,0.765
'13:06.075',-0.715,0.775
'13:06.078',-0.710,0.800
'13:06.081',-0.700,0.805
'13:06.083',-0.710,0.780
'13:06.086',-0.740,0.765
'13:06.089',-0.755,0.755
'13:06.092',-0.740,0.760
'13:06.094',-0.745,0.770
'13:06.097',-0.720,0.770
'13:06.100',-0.715,0.740
'13:06.103',-0.730,0.720
'13:06.106',-0.750,0.675
'13:06.108',-0.750,0.685
'13:06.111',-0.720,0.645
'13:06.114',-0.695,0.625
'13:06.117',-0.675,0.585
'13:06.119',-0.665,0.550
'13:06.122',-0.665,0.540
'13:06.125',-0.645,0.525
'13:06.128',-0.610,0.520
'13:06.131',-0.575,0.500
'13:06.133',-0.565,0.455
'13:06.136',-0.530,0.415
'13:06.139',-0.520,0.390
'13:06.142',-0.495,0.355
'13:06.144',-0.460,0.335
'13:06.147',-0.435,0.305
'13:06.150',-0.405,0.260
'13:06.153',-0.390,0.210
'13:06.156',-0.380,0.195
'13:06.158',-0.365,0.170
'13:06.161',-0.320,0.155
'13:06.164',-0.280,0.145
'13:06.167',-0.265,0.125
'13:06.169',-0.275,0.110
'13:06.172',-0.270,0.110
'13:06.175',-0.255,0.100
'13:06.178',-0.230,0.085
'13:06.181',-0.205,0.090
'13:06.183',-0.225,0.065
'13:06.186',-0.210,0.030
'13:06.189',-0.215,0.035
'13:06.192',-0.230,0.030
'13:06.194',-0.215,0.035
'13:06.197',-0.190,0.045
'13:06.200',-0.185,0.045
'13:06.203',-0.200,0.040
'13:06.206',-0.220,0.025
'13:06.208',-0.240,0.020
'13:06.211',-0.240,0.045
'13:06.214',-0.215,0.040
'13:06.217',-0.220,0.030
'13:06.219',-0.195,0.025
'13:06.222',-0.205,0.005
'13:06.225',-0.215,0.030
'13:06.228',-0.210,0.045
'13:06.231',-0.220,0.035
'13:06.233',-0.220,0.035
'13:06.236',-0.230,0.010
'13:06.239',-0.220,0.010
'13:06.242',-0.220,0.045
'13:06.244',-0.220,0.040
'13:06.247',-0.225,0.050
'13:06.250',-0.235,0.035
'13:06.253',-0.230,0.020
'13:06.256',-0.245,0.005
'13:06.258',-0.230,0.025
'13:06.261',-0.220,0.010
'13:06.264',-0.220,0.035
'13:06.267',-0.230,0.045
'13:06.269',-0.235,0.020
'13:06.272',-0.240,0.025
'13:06.275',-0.240,0.035
'13:06.278',-0.245,0.050
'13:06.281',-0.230,0.070
'13:06.283',-0.245,0.035
'13:06.286',-0.255,0.030
'13:06.289',-0.265,0.035
'13:06.292',-0.270,0.040
'13:06.294',-0.265,0.060
'13:06.297',-0.260,0.050
'13:06.300',-0.265,0.045
'13:06.303',-0.265,0.030
'13:06.306',-0.270,0.020
'13:06.308',-0.275,0.045
'13:06.311',-0.270,0.070
'13:06.314',-0.270,0.060
'13:06.317',-0.260,0.045
'13:06.319',-0.275,0.020
'13:06.322',-0.270,0.035
'13:06.325',-0.265,0.045
'13:06.328',-0.255,0.060
'13:06.331',-0.260,0.055
'13:06.333',-0.270,0.045
'13:06.336',-0.275,0.025
'13:06.339',-0.260,0.005
'13:06.342',-0.255,0.005
'13:06.344',-0.250,0.025
'13:06.347',-0.250,0.030
'13:06.350',-0.245,0.045
'13:06.353',-0.260,0.015
'13:06.356',-0.270,0.005
'13:06.358',-0.275,0.015
'13:06.361',-0.270,0.040
'13:06.364',-0.255,0.045
'13:06.367',-0.270,0.030
'13:06.369',-0.285,0.020
'13:06.372',-0.285,0.005
'13:06.375',-0.280,0.030
'13:06.378',-0.270,0.030
'13:06.381',-0.265,0.040
'13:06.383',-0.260,0.015
'13:06.386',-0.280,0.000
'13:06.389',-0.265,-0.005
'13:06.392',-0.260,0.000
'13:06.394',-0.235,0.010
'13:06.397',-0.225,0.030
'13:06.400',-0.240,-0.005
'13:06.403',-0.245,-0.010
'13:06.406',-0.270,-0.005
'13:06.408',-0.275,-0.010
'13:06.411',-0.270,0.010
'13:06.414',-0.245,0.020
'13:06.417',-0.250,0.010
'13:06.419',-0.280,-0.005
'13:06.422',-0.265,-0.030
'13:06.425',-0.255,-0.025
'13:06.428',-0.215,0.000
'13:06.431',-0.190,0.000
'13:06.433',-0.180,-0.005
'13:06.436',-0.210,-0.020
'13:06.439',-0.200,-0.025
'13:06.442',-0.200,-0.030
'13:06.444',-0.175,-0.005
'13:06.447',-0.145,0.000
'13:06.450',-0.150,0.000
'13:06.453',-0.165,-0.015
'13:06.456',-0.190,-0.040
'13:06.458',-0.190,-0.025
'13:06.461',-0.180,0.005
'13:06.464',-0.155,-0.005
'13:06.467',-0.155,-0.010
'13:06.469',-0.155,-0.045
'13:06.472',-0.170,-0.045
'13:06.475',-0.185,-0.025
'13:06.478',-0.170,-0.030
'13:06.481',-0.145,-0.025
'13:06.483',-0.130,-0.030
'13:06.486',-0.145,-0.035
'13:06.489',-0.170,-0.035
'13:06.492',-0.190,-0.045
'13:06.494',-0.195,-0.040
'13:06.497',-0.170,-0.040
'13:06.500',-0.180,-0.035
'13:06.503',-0.220,-0.060
'13:06.506',-0.220,-0.070
'13:06.508',-0.255,-0.070
'13:06.511',-0.235,-0.050
'13:06.514',-0.225,-0.060
'13:06.517',-0.225,-0.070
'13:06.519',-0.235,-0.080
'13:06.522',-0.245,-0.085
'13:06.525',-0.235,-0.050
'13:06.528',-0.215,-0.035
'13:06.531',-0.215,-0.030
'13:06.533',-0.220,-0.050
'13:06.536',-0.250,-0.060
'13:06.539',-0.280,-0.055
'13:06.542',-0.285,-0.060
'13:06.544',-0.265,-0.045
'13:06.547',-0.235,-0.040
'13:06.550',-0.210,-0.045
'13:06.553',-0.220,-0.055
'13:06.556',-0.230,-0.050
'13:06.558',-0.255,-0.040
'13:06.561',-0.235,-0.030
'13:06.564',-0.210,-0.050
'13:06.567',-0.200,-0.040
'13:06.569',-0.210,-0.030
'13:06.572',-0.225,-0.015
'13:06.575',-0.245,0.005
'13:06.578',-0.235,0.025
'13:06.581',-0.220,-0.015
'13:06.583',-0.145,-0.115
'13:06.586',-0.020,-0.250
'13:06.589',0.130,-0.405
'13:06.592',0.280,-0.530
'13:06.594',0.430,-0.675
'13:06.597',0.575,-0.785
'13:06.600',0.755,-0.900
'13:06.603',0.945,-1.015
'13:06.606',1.175,-1.085
'13:06.608',1.435,-1.105
'13:06.611',1.650,-1.105
'13:06.614',1.870,-1.105
'13:06.617',2.075,-1.105
'13:06.619',2.240,-1.100
'13:06.622',2.310,-1.095
'13:06.625',2.320,-1.095
'13:06.628',2.210,-1.065
'13:06.631',1.945,-1.055
'13:06.633',1.500,-1.005
'13:06.636',1.050,-0.970
'13:06.639',0.705,-0.940
'13:06.642',0.500,-0.860
'13:06.644',0.420,-0.765
'13:06.647',0.405,-0.665
'13:06.650',0.365,-0.605
'13:06.653',0.320,-0.550
'13:06.656',0.275,-0.485
'13:06.658',0.225,-0.425
'13:06.661',0.185,-0.370
'13:06.664',0.145,-0.315
'13:06.667',0.075,-0.275
'13:06.669',0.020,-0.250
'13:06.672',-0.010,-0.225
'13:06.675',-0.045,-0.165
'13:06.678',-0.085,-0.110
'13:06.681',-0.100,-0.045
'13:06.683',-0.135,-0.015
'13:06.686',-0.185,0.010
'13:06.689',-0.245,0.040
'13:06.692',-0.290,0.100
'13:06.694',-0.305,0.125
'13:06.697',-0.320,0.170
'13:06.700',-0.355,0.170
'13:06.703',-0.385,0.190
'13:06.706',-0.410,0.185
'13:06.708',-0.430,0.225
'13:06.711',-0.415,0.240
'13:06.714',-0.420,0.245
'13:06.717',-0.430,0.240
'13:06.719',-0.445,0.240
'13:06.722',-0.450,0.240
'13:06.725',-0.455,0.280
'13:06.728',-0.460,0.305
'13:06.731',-0.475,0.305
'13:06.733',-0.470,0.325
'13:06.736',-0.480,0.320
'13:06.739',-0.505,0.310
'13:06.742',-0.500,0.320
'13:06.744',-0.485,0.350
'13:06.747',-0.480,0.370
'13:06.750',-0.495,0.350
'13:06.753',-0.530,0.355
'13:06.756',-0.545,0.355
'13:06.758',-0.555,0.390
'13:06.761',-0.535,0.425
'13:06.764',-0.500,0.420
'13:06.767',-0.505,0.420
'13:06.769',-0.530,0.445
'13:06.772',-0.555,0.455
'13:06.775',-0.570,0.485
'13:06.778',-0.560,0.510
'13:06.781',-0.545,0.520
'13:06.783',-0.555,0.535
'13:06.786',-0.575,0.535
'13:06.789',-0.590,0.565
'13:06.792',-0.615,0.575
'13:06.794',-0.630,0.615
'13:06.797',-0.615,0.635
'13:06.800',-0.620,0.655
'13:06.803',-0.635,0.650
'13:06.806',-0.645,0.660
'13:06.808',-0.640,0.680
'13:06.811',-0.640,0.710
'13:06.814',-0.655,0.735
'13:06.817',-0.665,0.740
'13:06.819',-0.690,0.735
'13:06.822',-0.720,0.730
'13:06.825',-0.715,0.740
'13:06.828',-0.700,0.760
'13:06.831',-0.710,0.775
'13:06.833',-0.735,0.765
'13:06.836',-0.755,0.775
'13:06.839',-0.755,0.780
'13:06.842',-0.755,0.780
'13:06.844',-0.755,0.775
'13:06.847',-0.755,0.755
'13:06.850',-0.755,0.735
'13:06.853',-0.775,0.715
'13:06.856',-0.785,0.690
'13:06.858',-0.800,0.690
'13:06.861',-0.770,0.695
'13:06.864',-0.730,0.685
'13:06.867',-0.720,0.655
'13:06.869',-0.725,0.625
'13:06.872',-0.730,0.600
'13:06.875',-0.715,0.570
'13:06.878',-0.685,0.545
'13:06.881',-0.645,0.505
'13:06.883',-0.625,0.460
'13:06.886',-0.590,0.415
'13:06.889',-0.580,0.385
'13:06.892',-0.565,0.360
'13:06.894',-0.525,0.350
'13:06.897',-0.495,0.340
'13:06.900',-0.475,0.315
'13:06.903',-0.450,0.290
'13:06.906',-0.435,0.275
'13:06.908',-0.415,0.255
'13:06.911',-0.390,0.240
'13:06.914',-0.370,0.195
'13:06.917',-0.335,0.170
'13:06.919',-0.325,0.145
'13:06.922',-0.330,0.105
'13:06.925',-0.300,0.110
'13:06.928',-0.260,0.080
'13:06.931',-0.225,0.080
'13:06.933',-0.215,0.055
'13:06.936',-0.225,0.050
'13:06.939',-0.230,0.045
'13:06.942',-0.230,0.050
'13:06.944',-0.210,0.055
'13:06.947',-0.185,0.045
'13:06.950',-0.170,0.030
'13:06.953',-0.185,0.005
'13:06.956',-0.195,-0.010
'13:06.958',-0.190,0.015
'13:06.961',-0.185,0.015
'13:06.964',-0.180,0.025
'13:06.967',-0.195,0.020
'13:06.969',-0.210,0.005
'13:06.972',-0.215,-0.010
'13:06.975',-0.200,0.015
'13:06.978',-0.175,0.015
'13:06.981',-0.165,0.025
'13:06.983',-0.210,0.010
'13:06.986',-0.225,-0.010
'13:06.989',-0.230,-0.015
'13:06.992',-0.205,-0.005
'13:06.994',-0.185,0.005
'13:06.997',-0.170,0.000
'13:07.000',-0.190,0.000
'13:07.003',-0.200,0.000
'13:07.006',-0.220,0.015
'13:07.008',-0.215,0.020
'13:07.011',-0.195,0.045
'13:07.014',-0.195,0.040
'13:07.017',-0.190,0.035
'13:07.019',-0.190,0.010
'13:07.022',-0.205,0.015
'13:07.025',-0.215,0.015
'13:07.028',-0.230,0.010
'13:07.031',-0.210,0.035
'13:07.033',-0.195,0.030
'13:07.036',-0.200,0.045
'13:07.039',-0.235,0.035
'13:07.042',-0.235,0.040
'13:07.044',-0.240,0.060
'13:07.047',-0.215,0.055
'13:07.050',-0.210,0.035
'13:07.053',-0.210,0.035
'13:07.056',-0.220,0.015
'13:07.058',-0.225,0.045
'13:07.061',-0.225,0.070
'13:07.064',-0.190,0.055
'13:07.067',-0.200,0.030
'13:07.069',-0.240,0.015
'13:07.072',-0.270,0.015
'13:07.075',-0.265,0.030
'13:07.078',-0.250,0.040
'13:07.081',-0.235,0.045
'13:07.083',-0.240,0.045
'13:07.086',-0.250,0.030
'13:07.089',-0.270,0.020
'13:07.092',-0.270,0.035
'13:07.094',-0.245,0.045
'13:07.097',-0.220,0.040
'13:07.100',-0.220,0.015
'13:07.103',-0.225,0.015
'13:07.106',-0.250,-0.005
'13:07.108',-0.255,0.025
'13:07.111',-0.230,0.030
'13:07.114',-0.195,0.025
'13:07.117',-0.185,0.025
'13:07.119',-0.200,0.010
'13:07.122',-0.225,0.020
'13:07.125',-0.225,0.025
'13:07.128',-0.215,0.050
'13:07.131',-0.205,0.045
'13:07.133',-0.210,0.020
'13:07.136',-0.225,0.010
'13:07.139',-0.225,0.015
'13:07.142',-0.220,0.015
'13:07.144',-0.210,0.020
'13:07.147',-0.195,0.020
'13:07.150',-0.200,0.050
'13:07.153',-0.225,0.035
'13:07.156',-0.225,0.025
'13:07.158',-0.210,0.020
'13:07.161',-0.200,0.025
'13:07.164',-0.190,0.015
'13:07.167',-0.205,0.005
'13:07.169',-0.220,0.015
'13:07.172',-0.230,0.000
'13:07.175',-0.220,-0.010
'13:07.178',-0.205,-0.020
'13:07.181',-0.200,-0.005
'13:07.183',-0.200,-0.010
'13:07.186',-0.200,-0.005
'13:07.189',-0.210,-0.015
'13:07.192',-0.220,0.000
'13:07.194',-0.230,0.020
'13:07.197',-0.210,0.000
'13:07.200',-0.200,-0.020
'13:07.203',-0.205,-0.030
'13:07.206',-0.200,-0.035
'13:07.208',-0.225,-0.010
'13:07.211',-0.205,-0.005
'13:07.214',-0.185,0.005
'13:07.217',-0.160,-0.015
'13:07.219',-0.160,-0.020
'13:07.222',-0.160,-0.045
'13:07.225',-0.160,-0.025
'13:07.228',-0.140,0.005
'13:07.231',-0.135,0.015
'13:07.233',-0.150,0.005
'13:07.236',-0.160,-0.015
'13:07.239',-0.165,-0.020
'13:07.242',-0.145,0.000
'13:07.244',-0.135,0.020
'13:07.247',-0.120,0.025
'13:07.250',-0.125,0.005
'13:07.253',-0.140,-0.045
'13:07.256',-0.155,-0.065
'13:07.258',-0.160,-0.060
'13:07.261',-0.145,-0.045
'13:07.264',-0.115,-0.015
'13:07.267',-0.095,-0.025
'13:07.269',-0.110,-0.045
'13:07.272',-0.125,-0.040
'13:07.275',-0.135,-0.025
'13:07.278',-0.125,-0.015
'13:07.281',-0.145,-0.020
'13:07.283',-0.150,-0.035
'13:07.286',-0.185,-0.055
'13:07.289',-0.205,-0.055
'13:07.292',-0.225,-0.060
'13:07.294',-0.220,-0.065
'13:07.297',-0.195,-0.070
'13:07.300',-0.190,-0.070
'13:07.303',-0.200,-0.080
'13:07.306',-0.210,-0.095
'13:07.308',-0.200,-0.080
'13:07.311',-0.205,-0.070
'13:07.314',-0.200,-0.060
'13:07.317',-0.205,-0.070
'13:07.319',-0.215,-0.060
'13:07.322',-0.225,-0.060
'13:07.325',-0.225,-0.040
'13:07.328',-0.220,-0.045
'13:07.331',-0.205,-0.055
'13:07.333',-0.210,-0.065
'13:07.336',-0.220,-0.065
'13:07.339',-0.215,-0.055
'13:07.342',-0.210,-0.050
'13:07.344',-0.195,-0.045
'13:07.347',-0.195,-0.040
'13:07.350',-0.210,-0.065
'13:07.353',-0.230,-0.090
'13:07.356',-0.235,-0.075
'13:07.358',-0.195,-0.050
'13:07.361',-0.185,-0.015
'13:07.364',-0.175,0.000
'13:07.367',-0.180,-0.020
'13:07.369',-0.175,-0.075
'13:07.372',-0.140,-0.180
'13:07.375',-0.025,-0.325
'13:07.378',0.145,-0.440
'13:07.381',0.315,-0.540
'13:07.383',0.470,-0.695
'13:07.386',0.575,-0.820
'13:07.389',0.705,-0.930
'13:07.392',0.850,-1.035
'13:07.394',1.055,-1.110
'13:07.397',1.315,-1.160
'13:07.400',1.590,-1.195
'13:07.403',1.825,-1.195
'13:07.406',2.050,-1.180
'13:07.408',2.240,-1.140
'13:07.411',2.340,-1.115
'13:07.414',2.360,-1.095
'13:07.417',2.280,-1.085
'13:07.419',2.075,-1.075
'13:07.422',1.735,-1.030
'13:07.425',1.335,-0.965
'13:07.428',0.960,-0.900
'13:07.431',0.690,-0.835
'13:07.433',0.530,-0.760
'13:07.436',0.445,-0.715
'13:07.439',0.405,-0.605
'13:07.442',0.370,-0.525
'13:07.444',0.320,-0.440
'13:07.447',0.275,-0.400
'13:07.450',0.215,-0.390
'13:07.453',0.145,-0.380
'13:07.456',0.120,-0.340
'13:07.458',0.070,-0.250
'13:07.461',0.020,-0.180
'13:07.464',-0.010,-0.120
'13:07.467',-0.055,-0.100
'13:07.469',-0.095,-0.070
'13:07.472',-0.135,-0.055
'13:07.475',-0.205,-0.015
'13:07.478',-0.225,0.045
'13:07.481',-0.250,0.095
'13:07.483',-0.315,0.110
'13:07.486',-0.370,0.110
'13:07.489',-0.395,0.110
'13:07.492',-0.405,0.145
'13:07.494',-0.400,0.155
'13:07.497',-0.380,0.190
'13:07.500',-0.385,0.220
'13:07.503',-0.415,0.210
'13:07.506',-0.440,0.205
'13:07.508',-0.450,0.200
'13:07.511',-0.435,0.210
'13:07.514',-0.440,0.260
'13:07.517',-0.440,0.260
'13:07.519',-0.460,0.260
'13:07.522',-0.500,0.250
'13:07.525',-0.490,0.265
'13:07.528',-0.475,0.290
'13:07.531',-0.470,0.290
'13:07.533',-0.485,0.310
'13:07.536',-0.490,0.315
'13:07.539',-0.510,0.325
'13:07.542',-0.505,0.335
'13:07.544',-0.495,0.355
'13:07.547',-0.490,0.355
'13:07.550',-0.520,0.335
'13:07.553',-0.540,0.355
'13:07.556',-0.550,0.375
'13:07.558',-0.555,0.375
'13:07.561',-0.540,0.400
'13:07.564',-0.535,0.435
'13:07.567',-0.535,0.455
'13:07.569',-0.565,0.470
'13:07.572',-0.585,0.475
'13:07.575',-0.605,0.485
'13:07.578',-0.585,0.515
'13:07.581',-0.590,0.550
'13:07.583',-0.615,0.545
'13:07.586',-0.620,0.550
'13:07.589',-0.640,0.565
'13:07.592',-0.665,0.590
'13:07.594',-0.655,0.610
'13:07.597',-0.670,0.630
'13:07.600',-0.675,0.635
'13:07.603',-0.685,0.650
'13:07.606',-0.700,0.635
'13:07.608',-0.710,0.640
'13:07.611',-0.730,0.660
'13:07.614',-0.710,0.700
'13:07.617',-0.720,0.710
'13:07.619',-0.740,0.705
'13:07.622',-0.765,0.700
'13:07.625',-0.780,0.700
'13:07.628',-0.765,0.705
'13:07.631',-0.745,0.700
'13:07.633',-0.745,0.710
'13:07.636',-0.775,0.655
'13:07.639',-0.790,0.620
'13:07.642',-0.790,0.605
'13:07.644',-0.755,0.600
'13:07.647',-0.720,0.610
'13:07.650',-0.705,0.575
'13:07.653',-0.705,0.525
'13:07.656',-0.715,0.465
'13:07.658',-0.710,0.435
'13:07.661',-0.685,0.415
'13:07.664',-0.670,0.410
'13:07.667',-0.670,0.360
'13:07.669',-0.645,0.295
'13:07.672',-0.600,0.270
'13:07.675',-0.570,0.230
'13:07.678',-0.520,0.230
'13:07.681',-0.500,0.205
'13:07.683',-0.485,0.185
'13:07.686',-0.450,0.135
'13:07.689',-0.415,0.110
'13:07.692',-0.390,0.100
'13:07.694',-0.355,0.095
'13:07.697',-0.315,0.060
'13:07.700',-0.285,0.015
'13:07.703',-0.275,-0.010
'13:07.706',-0.290,-0.050
'13:07.708',-0.275,-0.040
'13:07.711',-0.240,-0.010
'13:07.714',-0.200,-0.025
'13:07.717',-0.200,-0.060
'13:07.719',-0.205,-0.100
'13:07.722',-0.205,-0.120
'13:07.725',-0.190,-0.115
'13:07.728',-0.185,-0.110
'13:07.731',-0.160,-0.110
'13:07.733',-0.160,-0.115
'13:07.736',-0.135,-0.125
'13:07.739',-0.130,-0.095
'13:07.742',-0.110,-0.105
'13:07.744',-0.100,-0.100
'13:07.747',-0.100,-0.110
'13:07.750',-0.130,-0.115
'13:07.753',-0.145,-0.110
'13:07.756',-0.120,-0.090
'13:07.758',-0.075,-0.065
'13:07.761',-0.010,-0.020
'13:07.764',0.095,0.015
'13:07.767',0.185,0.040
'13:07.769',0.300,0.080
'13:07.772',0.400,0.135
'13:07.775',0.530,0.180
'13:07.778',0.665,0.255
'13:07.781',0.795,0.325
'13:07.783',0.925,0.390
'13:07.786',1.040,0.410
'13:07.789',1.120,0.445
'13:07.792',1.180,0.525
'13:07.794',1.245,0.590
'13:07.797',1.325,0.675
'13:07.800',1.375,0.735
'13:07.803',1.385,0.735
'13:07.806',1.275,0.755
'13:07.808',1.010,0.785
'13:07.811',0.605,0.825
'13:07.814',0.155,0.880
'13:07.817',-0.290,0.875
'13:07.819',-0.690,0.870
'13:07.822',-1.025,0.845
'13:07.825',-1.275,0.855
'13:07.828',-1.485,0.840
'13:07.831',-1.645,0.840
'13:07.833',-1.770,0.775
'13:07.836',-1.850,0.720
'13:07.839',-1.905,0.650
'13:07.842',-1.970,0.615
'13:07.844',-2.010,0.580
'13:07.847',-2.055,0.550
'13:07.850',-2.100,0.530
'13:07.853',-2.150,0.495
'13:07.856',-2.200,0.495
'13:07.858',-2.240,0.500
'13:07.861',-2.240,0.525
'13:07.864',-2.215,0.550
'13:07.867',-2.210,0.545
'13:07.869',-2.220,0.505
'13:07.872',-2.235,0.470
'13:07.875',-2.215,0.425
'13:07.878',-2.140,0.425
'13:07.881',-2.050,0.395
'13:07.883',-1.955,0.360
'13:07.886',-1.860,0.320
'13:07.889',-1.735,0.300
'13:07.892',-1.575,0.300
'13:07.894',-1.395,0.315
'13:07.897',-1.240,0.320
'13:07.900',-1.120,0.310
'13:07.903',-1.020,0.300
'13:07.906',-0.925,0.295
'13:07.908',-0.855,0.310
'13:07.911',-0.785,0.320
'13:07.914',-0.725,0.305
'13:07.917',-0.715,0.270
'13:07.919',-0.710,0.215
'13:07.922',-0.685,0.150
'13:07.925',-0.640,0.120
'13:07.928',-0.570,0.095
'13:07.931',-0.515,0.035
'13:07.933',-0.470,-0.025
'13:07.936',-0.460,-0.110
'13:07.939',-0.425,-0.180
'13:07.942',-0.370,-0.225
'13:07.944',-0.310,-0.255
'13:07.947',-0.230,-0.280
'13:07.950',-0.205,-0.330
'13:07.953',-0.180,-0.405
'13:07.956',-0.155,-0.455
'13:07.958',-0.095,-0.485
'13:07.961',-0.010,-0.520
'13:07.964',0.075,-0.540
'13:07.967',0.110,-0.580
'13:07.969',0.120,-0.610
'13:07.972',0.115,-0.635
'13:07.975',0.120,-0.650
'13:07.978',0.165,-0.650
'13:07.981',0.205,-0.665
'13:07.983',0.220,-0.695
'13:07.986',0.220,-0.730
'13:07.989',0.240,-0.760
'13:07.992',0.265,-0.765
'13:07.994',0.315,-0.765
'13:07.997',0.365,-0.770
'13:08.000',0.410,-0.795
'13:08.003',0.425,-0.840
'13:08.006',0.440,-0.875
'13:08.008',0.495,-0.870
'13:08.011',0.540,-0.880
'13:08.014',0.595,-0.855
'13:08.017',0.605,-0.865
'13:08.019',0.620,-0.905
'13:08.022',0.615,-0.935
'13:08.025',0.650,-0.970
'13:08.028',0.695,-0.965
'13:08.031',0.745,-0.960
'13:08.033',0.775,-0.990
'13:08.036',0.795,-1.000
'13:08.039',0.845,-1.045
'13:08.042',0.890,-1.045
'13:08.044',0.940,-1.045
'13:08.047',0.990,-1.050
'13:08.050',1.005,-1.055
'13:08.053',1.030,-1.065
'13:08.056',1.035,-1.070
'13:08.058',1.065,-1.065
'13:08.061',1.130,-1.055
'13:08.064',1.170,-1.065
'13:08.067',1.210,-1.065
'13:08.069',1.195,-1.080
'13:08.072',1.205,-1.100
'13:08.075',1.225,-1.090
'13:08.078',1.250,-1.070
'13:08.081',1.275,-1.045
'13:08.083',1.305,-1.050
'13:08.086',1.325,-1.045
'13:08.089',1.335,-1.050
'13:08.092',1.345,-1.045
'13:08.094',1.375,-1.030
'13:08.097',1.385,-1.010
'13:08.100',1.405,-1.015
'13:08.103',1.400,-1.000
'13:08.106',1.390,-1.005
'13:08.108',1.375,-1.000
'13:08.111',1.375,-0.980
'13:08.114',1.390,-0.960
'13:08.117',1.370,-0.960
'13:08.119',1.360,-0.960
'13:08.122',1.335,-0.955
'13:08.125',1.345,-0.930
'13:08.128',1.335,-0.900
'13:08.131',1.330,-0.855
'13:08.133',1.290,-0.835
'13:08.136',1.225,-0.820
'13:08.139',1.170,-0.800
'13:08.142',1.140,-0.780
'13:08.144',1.110,-0.740
'13:08.147',1.090,-0.710
'13:08.150',1.045,-0.690
'13:08.153',1.005,-0.680
'13:08.156',0.955,-0.660
'13:08.158',0.895,-0.645
'13:08.161',0.850,-0.615
'13:08.164',0.825,-0.575
'13:08.167',0.770,-0.570
'13:08.169',0.720,-0.560
'13:08.172',0.645,-0.565
'13:08.175',0.615,-0.530
'13:08.178',0.585,-0.505
'13:08.181',0.565,-0.480
'13:08.183',0.520,-0.445
'13:08.186',0.455,-0.460
'13:08.189',0.390,-0.450
'13:08.192',0.350,-0.430
'13:08.194',0.345,-0.395
'13:08.197',0.300,-0.365
'13:08.200',0.245,-0.365
'13:08.203',0.190,-0.360
'13:08.206',0.135,-0.385
'13:08.208',0.130,-0.355
'13:08.211',0.125,-0.325
'13:08.214',0.110,-0.320
'13:08.217',0.070,-0.325
'13:08.219',0.040,-0.315
'13:08.222',-0.010,-0.335
'13:08.225',-0.025,-0.345
'13:08.228',-0.045,-0.315
'13:08.231',-0.045,-0.310
'13:08.233',-0.060,-0.300
'13:08.236',-0.075,-0.335
'13:08.239',-0.095,-0.350
'13:08.242',-0.110,-0.340
'13:08.244',-0.110,-0.325
'13:08.247',-0.115,-0.315
'13:08.250',-0.135,-0.320
'13:08.253',-0.160,-0.315
'13:08.256',-0.175,-0.335
'13:08.258',-0.175,-0.325
'13:08.261',-0.160,-0.305
'13:08.264',-0.150,-0.300
'13:08.267',-0.160,-0.310
'13:08.269',-0.165,-0.335
'13:08.272',-0.170,-0.340
'13:08.275',-0.190,-0.320
'13:08.278',-0.190,-0.290
'13:08.281',-0.180,-0.275
'13:08.283',-0.180,-0.280
'13:08.286',-0.205,-0.305
'13:08.289',-0.225,-0.310
'13:08.292',-0.225,-0.320
'13:08.294',-0.215,-0.300
'13:08.297',-0.205,-0.285
'13:08.300',-0.225,-0.305
'13:08.303',-0.215,-0.305
'13:08.306',-0.220,-0.310
'13:08.308',-0.210,-0.290
'13:08.311',-0.220,-0.290
'13:08.314',-0.230,-0.300
'13:08.317',-0.235,-0.320
'13:08.319',-0.235,-0.330
'13:08.322',-0.265,-0.340
'13:08.325',-0.250,-0.345
'13:08.328',-0.230,-0.325
'13:08.331',-0.235,-0.310
'13:08.333',-0.235,-0.320
'13:08.336',-0.255,-0.330
'13:08.339',-0.280,-0.350
'13:08.342',-0.280,-0.340
'13:08.344',-0.250,-0.325
'13:08.347',-0.230,-0.305
'13:08.350',-0.240,-0.310
'13:08.353',-0.240,-0.315
'13:08.356',-0.285,-0.330
'13:08.358',-0.310,-0.310
'13:08.361',-0.305,-0.310
'13:08.364',-0.270,-0.305
'13:08.367',-0.280,-0.325
'13:08.369',-0.285,-0.325
'13:08.372',-0.300,-0.340
'13:08.375',-0.305,-0.325
'13:08.378',-0.305,-0.315
'13:08.381',-0.305,-0.300
'13:08.383',-0.300,-0.325
'13:08.386',-0.315,-0.335
'13:08.389',-0.320,-0.335
'13:08.392',-0.305,-0.310
'13:08.394',-0.305,-0.305
'13:08.397',-0.285,-0.315
'13:08.400',-0.300,-0.320
'13:08.403',-0.320,-0.340
'13:08.406',-0.330,-0.335
'13:08.408',-0.330,-0.325
'13:08.411',-0.335,-0.305
'13:08.414',-0.310,-0.300
'13:08.417',-0.310,-0.325
'13:08.419',-0.330,-0.355
'13:08.422',-0.365,-0.360
'13:08.425',-0.365,-0.350
'13:08.428',-0.335,-0.330
'13:08.431',-0.315,-0.315
'13:08.433',-0.320,-0.320
'13:08.436',-0.335,-0.330
'13:08.439',-0.340,-0.345
'13:08.442',-0.335,-0.345
'13:08.444',-0.325,-0.320
'13:08.447',-0.305,-0.300
'13:08.450',-0.330,-0.305
'13:08.453',-0.370,-0.320
'13:08.456',-0.380,-0.335
'13:08.458',-0.370,-0.330
'13:08.461',-0.350,-0.325
'13:08.464',-0.305,-0.325
'13:08.467',-0.305,-0.340
'13:08.469',-0.310,-0.340
'13:08.472',-0.320,-0.335
'13:08.475',-0.330,-0.325
'13:08.478',-0.320,-0.315
'13:08.481',-0.315,-0.330
'13:08.483',-0.325,-0.330
'13:08.486',-0.335,-0.350
'13:08.489',-0.345,-0.345
'13:08.492',-0.330,-0.335
'13:08.494',-0.335,-0.335
'13:08.497',-0.315,-0.325
'13:08.500',-0.320,-0.335
'13:08.503',-0.325,-0.325
'13:08.506',-0.335,-0.315
'13:08.508',-0.360,-0.305
'13:08.511',-0.335,-0.300
'13:08.514',-0.310,-0.305
'13:08.517',-0.300,-0.320
'13:08.519',-0.315,-0.330
'13:08.522',-0.350,-0.350
'13:08.525',-0.375,-0.350
'13:08.528',-0.375,-0.325
'13:08.531',-0.355,-0.305
'13:08.533',-0.320,-0.310
'13:08.536',-0.310,-0.325
'13:08.539',-0.325,-0.315
'13:08.542',-0.335,-0.315
'13:08.544',-0.350,-0.295
'13:08.547',-0.330,-0.295
'13:08.550',-0.330,-0.320
'13:08.553',-0.355,-0.325
'13:08.556',-0.350,-0.320
'13:08.558',-0.345,-0.320
'13:08.561',-0.325,-0.315
'13:08.564',-0.320,-0.305
'13:08.567',-0.335,-0.325
'13:08.569',-0.345,-0.330
'13:08.572',-0.370,-0.345
'13:08.575',-0.365,-0.335
'13:08.578',-0.345,-0.305
'13:08.581',-0.330,-0.300
'13:08.583',-0.325,-0.295
'13:08.586',-0.335,-0.300
'13:08.589',-0.335,-0.300
'13:08.592',-0.330,-0.305
'13:08.594',-0.320,-0.295
'13:08.597',-0.320,-0.300
'13:08.600',-0.310,-0.300
'13:08.603',-0.325,-0.325
'13:08.606',-0.340,-0.320
'13:08.608',-0.350,-0.330
'13:08.611',-0.345,-0.300
'13:08.614',-0.355,-0.300
'13:08.617',-0.340,-0.310
'13:08.619',-0.350,-0.320
'13:08.622',-0.345,-0.320
'13:08.625',-0.325,-0.310
'13:08.628',-0.290,-0.290
'13:08.631',-0.285,-0.265
'13:08.633',-0.295,-0.290
'13:08.636',-0.325,-0.300
'13:08.639',-0.350,-0.320
'13:08.642',-0.360,-0.305
'13:08.644',-0.365,-0.295
'13:08.647',-0.345,-0.280
'13:08.650',-0.320,-0.290
'13:08.653',-0.320,-0.300
'13:08.656',-0.325,-0.305
'13:08.658',-0.335,-0.290
'13:08.661',-0.335,-0.290
'13:08.664',-0.325,-0.270
'13:08.667',-0.315,-0.280
'13:08.669',-0.305,-0.275
'13:08.672',-0.320,-0.280
'13:08.675',-0.325,-0.265
'13:08.678',-0.310,-0.275
'13:08.681',-0.295,-0.260
'13:08.683',-0.305,-0.255
'13:08.686',-0.325,-0.285
'13:08.689',-0.350,-0.295
'13:08.692',-0.355,-0.305
'13:08.694',-0.345,-0.275
'13:08.697',-0.310,-0.255
'13:08.700',-0.305,-0.260
'13:08.703',-0.300,-0.295
'13:08.706',-0.320,-0.300
'13:08.708',-0.330,-0.285
'13:08.711',-0.315,-0.250
'13:08.714',-0.310,-0.230
'13:08.717',-0.310,-0.240
'13:08.719',-0.310,-0.255
'13:08.722',-0.330,-0.270
'13:08.725',-0.320,-0.245
'13:08.728',-0.305,-0.235
'13:08.731',-0.300,-0.225
'13:08.733',-0.320,-0.265
'13:08.736',-0.335,-0.285
'13:08.739',-0.345,-0.315
'13:08.742',-0.355,-0.305
'13:08.744',-0.320,-0.265
'13:08.747',-0.290,-0.230
'13:08.750',-0.290,-0.240
'13:08.753',-0.295,-0.250
'13:08.756',-0.310,-0.250
'13:08.758',-0.320,-0.255
'13:08.761',-0.330,-0.250
'13:08.764',-0.320,-0.230
'13:08.767',-0.320,-0.245
'13:08.769',-0.315,-0.235
'13:08.772',-0.335,-0.235
'13:08.775',-0.325,-0.230
'13:08.778',-0.315,-0.215
'13:08.781',-0.300,-0.225
'13:08.783',-0.295,-0.235
'13:08.786',-0.305,-0.260
'13:08.789',-0.315,-0.255
'13:08.792',-0.315,-0.245
'13:08.794',-0.305,-0.225
'13:08.797',-0.305,-0.215
'13:08.800',-0.320,-0.225
'13:08.803',-0.320,-0.225
'13:08.806',-0.330,-0.245
'13:08.808',-0.335,-0.240
'13:08.811',-0.320,-0.205
'13:08.814',-0.305,-0.195
'13:08.817',-0.305,-0.195
'13:08.819',-0.315,-0.205
'13:08.822',-0.320,-0.205
'13:08.825',-0.330,-0.185
'13:08.828',-0.325,-0.200
'13:08.831',-0.305,-0.210
'13:08.833',-0.300,-0.205
'13:08.836',-0.320,-0.205
'13:08.839',-0.335,-0.210
'13:08.842',-0.335,-0.215
'13:08.844',-0.310,-0.200
'13:08.847',-0.305,-0.200
'13:08.850',-0.305,-0.210
'13:08.853',-0.320,-0.210
'13:08.856',-0.330,-0.210
'13:08.858',-0.325,-0.200
'13:08.861',-0.305,-0.175
'13:08.864',-0.300,-0.165
'13:08.867',-0.310,-0.180
'13:08.869',-0.330,-0.195
'13:08.872',-0.355,-0.200
'13:08.875',-0.345,-0.200
'13:08.878',-0.325,-0.185
'13:08.881',-0.320,-0.165
'13:08.883',-0.320,-0.170
'13:08.886',-0.320,-0.180
'13:08.889',-0.325,-0.190
'13:08.892',-0.340,-0.175
'13:08.894',-0.325,-0.165
'13:08.897',-0.315,-0.140
'13:08.900',-0.285,-0.160
'13:08.903',-0.295,-0.185
'13:08.906',-0.300,-0.180
'13:08.908',-0.315,-0.165
'13:08.911',-0.305,-0.140
'13:08.914',-0.280,-0.120
'13:08.917',-0.275,-0.120
'13:08.919',-0.315,-0.155
'13:08.922',-0.325,-0.170
'13:08.925',-0.325,-0.175
'13:08.928',-0.290,-0.160
'13:08.931',-0.260,-0.150
'13:08.933',-0.235,-0.160
'13:08.936',-0.240,-0.155
'13:08.939',-0.265,-0.170
'13:08.942',-0.260,-0.170
'13:08.944',-0.260,-0.140
'13:08.947',-0.260,-0.110
'13:08.950',-0.245,-0.120
'13:08.953',-0.240,-0.140
'13:08.956',-0.245,-0.130
'13:08.958',-0.235,-0.125
'13:08.961',-0.225,-0.115
'13:08.964',-0.215,-0.095
'13:08.967',-0.220,-0.115
'13:08.969',-0.225,-0.130
'13:08.972',-0.235,-0.155
'13:08.975',-0.230,-0.150
'13:08.978',-0.225,-0.140
'13:08.981',-0.215,-0.145
'13:08.983',-0.210,-0.150
'13:08.986',-0.230,-0.150
'13:08.989',-0.230,-0.145
'13:08.992',-0.235,-0.125
'13:08.994',-0.250,-0.090
'13:08.997',-0.230,-0.090
'13:09.000',-0.245,-0.105
'13:09.003',-0.265,-0.140
'13:09.006',-0.275,-0.155
'13:09.008',-0.270,-0.140
'13:09.011',-0.265,-0.120
'13:09.014',-0.265,-0.095
'13:09.017',-0.305,-0.115
'13:09.019',-0.315,-0.160
'13:09.022',-0.335,-0.185
'13:09.025',-0.345,-0.170
'13:09.028',-0.325,-0.160
'13:09.031',-0.300,-0.155
'13:09.033',-0.295,-0.145
'13:09.036',-0.310,-0.145
'13:09.039',-0.325,-0.155
'13:09.042',-0.345,-0.155
'13:09.044',-0.345,-0.115
'13:09.047',-0.325,-0.110
'13:09.050',-0.305,-0.105
'13:09.053',-0.310,-0.105
'13:09.056',-0.320,-0.125
'13:09.058',-0.335,-0.105
'13:09.061',-0.335,-0.095
'13:09.064',-0.330,-0.100
'13:09.067',-0.320,-0.120
'13:09.069',-0.320,-0.130
'13:09.072',-0.330,-0.135
'13:09.075',-0.335,-0.120
'13:09.078',-0.325,-0.100
'13:09.081',-0.295,-0.090
'13:09.083',-0.295,-0.085
'13:09.086',-0.305,-0.085
'13:09.089',-0.335,-0.065
'13:09.092',-0.330,-0.030
'13:09.094',-0.320,0.000
'13:09.097',-0.330,0.015
'13:09.100',-0.350,-0.020
'13:09.103',-0.355,-0.090
'13:09.106',-0.325,-0.160
'13:09.108',-0.255,-0.220
'13:09.111',-0.135,-0.270
'13:09.114',-0.005,-0.385
'13:09.117',0.115,-0.515
'13:09.119',0.230,-0.660
'13:09.122',0.320,-0.780
'13:09.125',0.450,-0.880
'13:09.128',0.595,-0.980
'13:09.131',0.755,-1.045
'13:09.133',0.940,-1.110
'13:09.136',1.175,-1.170
'13:09.139',1.425,-1.220
'13:09.142',1.650,-1.205
'13:09.144',1.865,-1.190
'13:09.147',2.080,-1.145
'13:09.150',2.215,-1.120
'13:09.153',2.260,-1.120
'13:09.156',2.280,-1.125
'13:09.158',2.265,-1.105
'13:09.161',2.265,-1.090
'13:09.164',2.225,-1.080
'13:09.167',2.075,-1.060
'13:09.169',1.785,-1.030
'13:09.172',1.395,-0.995
'13:09.175',1.010,-0.945
'13:09.178',0.730,-0.865
'13:09.181',0.580,-0.810
'13:09.183',0.470,-0.725
'13:09.186',0.375,-0.645
'13:09.189',0.300,-0.555
'13:09.192',0.245,-0.470
'13:09.194',0.185,-0.430
'13:09.197',0.145,-0.375
'13:09.200',0.095,-0.320
'13:09.203',0.000,-0.295
'13:09.206',-0.070,-0.260
'13:09.208',-0.110,-0.230
'13:09.211',-0.120,-0.175
'13:09.214',-0.115,-0.125
'13:09.217',-0.145,-0.075
'13:09.219',-0.200,-0.035
'13:09.222',-0.240,-0.025
'13:09.225',-0.300,0.010
'13:09.228',-0.340,0.070
'13:09.231',-0.370,0.120
'13:09.233',-0.405,0.150
'13:09.236',-0.425,0.130
'13:09.239',-0.470,0.140
'13:09.242',-0.510,0.170
'13:09.244',-0.525,0.200
'13:09.247',-0.525,0.200
'13:09.250',-0.545,0.195
'13:09.253',-0.550,0.190
'13:09.256',-0.565,0.210
'13:09.258',-0.565,0.210
'13:09.261',-0.580,0.265
'13:09.264',-0.595,0.285
'13:09.267',-0.620,0.270
'13:09.269',-0.625,0.250
'13:09.272',-0.625,0.260
'13:09.275',-0.615,0.275
'13:09.278',-0.615,0.305
'13:09.281',-0.620,0.330
'13:09.283',-0.615,0.335
'13:09.286',-0.635,0.320
'13:09.289',-0.665,0.290
'13:09.292',-0.665,0.300
'13:09.294',-0.660,0.335
'13:09.297',-0.630,0.360
'13:09.300',-0.635,0.375
'13:09.303',-0.660,0.380
'13:09.306',-0.675,0.385
'13:09.308',-0.685,0.395
'13:09.311',-0.690,0.430
'13:09.314',-0.680,0.460
'13:09.317',-0.675,0.470
'13:09.319',-0.685,0.475
'13:09.322',-0.700,0.480
'13:09.325',-0.705,0.480
'13:09.328',-0.690,0.500
'13:09.331',-0.700,0.530
'13:09.333',-0.715,0.530
'13:09.336',-0.730,0.520
'13:09.339',-0.750,0.515
'13:09.342',-0.755,0.565
'13:09.344',-0.745,0.600
'13:09.347',-0.750,0.600
'13:09.350',-0.770,0.620
'13:09.353',-0.780,0.635
'13:09.356',-0.805,0.635
'13:09.358',-0.825,0.660
'13:09.361',-0.815,0.690
'13:09.364',-0.790,0.730
'13:09.367',-0.790,0.715
'13:09.369',-0.810,0.700
'13:09.372',-0.855,0.685
'13:09.375',-0.875,0.685
'13:09.378',-0.870,0.705
'13:09.381',-0.855,0.715
'13:09.383',-0.855,0.720
'13:09.386',-0.860,0.700
'13:09.389',-0.885,0.710
'13:09.392',-0.905,0.720
'13:09.394',-0.910,0.725
'13:09.397',-0.905,0.735
'13:09.400',-0.900,0.730
'13:09.403',-0.895,0.705
'13:09.406',-0.895,0.715
'13:09.408',-0.905,0.725
'13:09.411',-0.895,0.730
'13:09.414',-0.885,0.725
'13:09.417',-0.875,0.710
'13:09.419',-0.880,0.675
'13:09.422',-0.900,0.645
'13:09.425',-0.885,0.620
'13:09.428',-0.855,0.610
'13:09.431',-0.825,0.600
'13:09.433',-0.810,0.560
'13:09.436',-0.810,0.520
'13:09.439',-0.815,0.485
'13:09.442',-0.795,0.490
'13:09.444',-0.760,0.465
'13:09.447',-0.705,0.450
'13:09.450',-0.665,0.420
'13:09.453',-0.635,0.380
'13:09.456',-0.615,0.365
'13:09.458',-0.610,0.350
'13:09.461',-0.565,0.360
'13:09.464',-0.540,0.345
'13:09.467',-0.485,0.320
'13:09.469',-0.450,0.270
'13:09.472',-0.425,0.235
'13:09.475',-0.395,0.220
'13:09.478',-0.350,0.230
'13:09.481',-0.335,0.230
'13:09.483',-0.345,0.215
'13:09.486',-0.340,0.185
'13:09.489',-0.325,0.160
'13:09.492',-0.300,0.155
'13:09.494',-0.270,0.175
'13:09.497',-0.240,0.195
'13:09.500',-0.240,0.185
'13:09.503',-0.250,0.155
'13:09.506',-0.275,0.130
'13:09.508',-0.265,0.120
'13:09.511',-0.245,0.150
'13:09.514',-0.225,0.150
'13:09.517',-0.225,0.145
'13:09.519',-0.250,0.135
'13:09.522',-0.255,0.095
'13:09.525',-0.235,0.100
'13:09.528',-0.225,0.105
'13:09.531',-0.220,0.135
'13:09.533',-0.220,0.140
'13:09.536',-0.250,0.140
'13:09.539',-0.240,0.145
'13:09.542',-0.230,0.160
'13:09.544',-0.230,0.170
'13:09.547',-0.240,0.175
'13:09.550',-0.255,0.175
'13:09.553',-0.260,0.165
'13:09.556',-0.275,0.155
'13:09.558',-0.285,0.170
'13:09.561',-0.280,0.170
'13:09.564',-0.265,0.175
'13:09.567',-0.265,0.170
'13:09.569',-0.280,0.165
'13:09.572',-0.315,0.155
'13:09.575',-0.300,0.150
'13:09.578',-0.295,0.165
'13:09.581',-0.250,0.180
'13:09.583',-0.215,0.180
'13:09.586',-0.225,0.180
'13:09.589',-0.245,0.180
'13:09.592',-0.270,0.165
'13:09.594',-0.265,0.180
'13:09.597',-0.290,0.190
'13:09.600',-0.275,0.205
'13:09.603',-0.275,0.195
'13:09.606',-0.285,0.185
'13:09.608',-0.295,0.175
'13:09.611',-0.300,0.195
'13:09.614',-0.315,0.205
'13:09.617',-0.280,0.195
'13:09.619',-0.290,0.185
'13:09.622',-0.300,0.185
'13:09.625',-0.305,0.195
'13:09.628',-0.285,0.215
'13:09.631',-0.275,0.225
'13:09.633',-0.280,0.210
'13:09.636',-0.300,0.185
'13:09.639',-0.315,0.190
'13:09.642',-0.315,0.215
'13:09.644',-0.310,0.230
'13:09.647',-0.310,0.220
'13:09.650',-0.290,0.195
'13:09.653',-0.285,0.175
'13:09.656',-0.295,0.170
'13:09.658',-0.285,0.185
'13:09.661',-0.280,0.210
'13:09.664',-0.280,0.220
'13:09.667',-0.255,0.195
'13:09.669',-0.260,0.180
'13:09.672',-0.285,0.175
'13:09.675',-0.275,0.160
'13:09.678',-0.280,0.180
'13:09.681',-0.265,0.200
'13:09.683',-0.255,0.170
'13:09.686',-0.265,0.155
'13:09.689',-0.275,0.150
'13:09.692',-0.290,0.155
'13:09.694',-0.290,0.180
'13:09.697',-0.280,0.195
'13:09.700',-0.280,0.205
'13:09.703',-0.285,0.180
'13:09.706',-0.305,0.185
'13:09.708',-0.300,0.175
'13:09.711',-0.285,0.185
'13:09.714',-0.260,0.195
'13:09.717',-0.260,0.185
'13:09.719',-0.270,0.180
'13:09.722',-0.285,0.165
'13:09.725',-0.295,0.195
'13:09.728',-0.285,0.210
'13:09.731',-0.270,0.215
'13:09.733',-0.275,0.185
'13:09.736',-0.265,0.155
'13:09.739',-0.260,0.130
'13:09.742',-0.255,0.135
'13:09.744',-0.235,0.155
'13:09.747',-0.250,0.175
'13:09.750',-0.275,0.175
'13:09.753',-0.295,0.170
'13:09.756',-0.305,0.150
'13:09.758',-0.295,0.160
'13:09.761',-0.260,0.165
'13:09.764',-0.255,0.180
'13:09.767',-0.255,0.175
'13:09.769',-0.255,0.170
'13:09.772',-0.265,0.155
'13:09.775',-0.290,0.160
'13:09.778',-0.255,0.165
'13:09.781',-0.265,0.185
'13:09.783',-0.250,0.175
'13:09.786',-0.250,0.160
'13:09.789',-0.250,0.160
'13:09.792',-0.245,0.160
'13:09.794',-0.230,0.180
'13:09.797',-0.210,0.185
'13:09.800',-0.200,0.185
'13:09.803',-0.215,0.185
'13:09.806',-0.215,0.180
'13:09.808',-0.215,0.215
'13:09.811',-0.200,0.240
'13:09.814',-0.190,0.245
'13:09.817',-0.190,0.225
'13:09.819',-0.200,0.185
'13:09.822',-0.220,0.165
'13:09.825',-0.205,0.165
'13:09.828',-0.180,0.205
'13:09.831',-0.165,0.215
'13:09.833',-0.170,0.195
'13:09.836',-0.175,0.180
'13:09.839',-0.185,0.160
'13:09.842',-0.180,0.160
'13:09.844',-0.165,0.185
'13:09.847',-0.170,0.210
'13:09.850',-0.185,0.225
'13:09.853',-0.205,0.190
'13:09.856',-0.190,0.160
'13:09.858',-0.185,0.155
'13:09.861',-0.180,0.155
'13:09.864',-0.175,0.185
'13:09.867',-0.200,0.190
'13:09.869',-0.220,0.170
'13:09.872',-0.260,0.140
'13:09.875',-0.260,0.175
'13:09.878',-0.210,0.175
'13:09.881',-0.215,0.200
'13:09.883',-0.200,0.200
'13:09.886',-0.230,0.200
'13:09.889',-0.255,0.175
'13:09.892',-0.275,0.160
'13:09.894',-0.300,0.165
'13:09.897',-0.300,0.175
'13:09.900',-0.300,0.150
'13:09.903',-0.300,0.145
'13:09.906',-0.275,0.155
'13:09.908',-0.260,0.170
'13:09.911',-0.250,0.190
'13:09.914',-0.230,0.200
'13:09.917',-0.245,0.185
'13:09.919',-0.280,0.175
'13:09.922',-0.300,0.180
'13:09.925',-0.305,0.190
'13:09.928',-0.290,0.215
'13:09.931',-0.270,0.230
'13:09.933',-0.265,0.200
'13:09.936',-0.275,0.170
'13:09.939',-0.280,0.140
'13:09.942',-0.290,0.145
'13:09.944',-0.285,0.165
'13:09.947',-0.270,0.180
'13:09.950',-0.265,0.185
'13:09.953',-0.285,0.190
'13:09.956',-0.285,0.185
'13:09.958',-0.285,0.195
'13:09.961',-0.265,0.220
'13:09.964',-0.245,0.245
'13:09.967',-0.235,0.255
'13:09.969',-0.255,0.260
'13:09.972',-0.260,0.260
'13:09.975',-0.295,0.270
'13:09.978',-0.260,0.255
'13:09.981',-0.195,0.215
'13:09.983',-0.110,0.130
'13:09.986',-0.005,0.025
'13:09.989',0.085,-0.075
'13:09.992',0.215,-0.195
'13:09.994',0.335,-0.310
'13:09.997',0.460,-0.420
'13:10.000',0.590,-0.500
'13:10.003',0.720,-0.600
'13:10.006',0.830,-0.675
'13:10.008',0.980,-0.745
'13:10.011',1.130,-0.790
'13:10.014',1.270,-0.820
'13:10.017',1.395,-0.865
'13:10.019',1.515,-0.930
'13:10.022',1.690,-0.935
'13:10.025',1.890,-0.930
'13:10.028',2.085,-0.885
'13:10.031',2.185,-0.810
'13:10.033',2.170,-0.810
'13:10.036',2.055,-0.800
'13:10.039',1.820,-0.790
'13:10.042',1.460,-0.750
'13:10.044',1.095,-0.680
'13:10.047',0.785,-0.590
'13:10.050',0.585,-0.535
'13:10.053',0.455,-0.445
'13:10.056',0.395,-0.355
'13:10.058',0.375,-0.285
'13:10.061',0.355,-0.215
'13:10.064',0.320,-0.170
'13:10.067',0.285,-0.130
'13:10.069',0.225,-0.125
'13:10.072',0.175,-0.090
'13:10.075',0.105,-0.025
'13:10.078',0.065,0.025
'13:10.081',0.025,0.100
'13:10.083',0.010,0.135
'13:10.086',-0.030,0.175
'13:10.089',-0.075,0.200
'13:10.092',-0.110,0.235
'13:10.094',-0.155,0.275
'13:10.097',-0.200,0.320
'13:10.100',-0.250,0.355
'13:10.103',-0.305,0.385
'13:10.106',-0.360,0.410
'13:10.108',-0.380,0.445
'13:10.111',-0.390,0.465
'13:10.114',-0.410,0.505
'13:10.117',-0.425,0.505
'13:10.119',-0.455,0.510
'13:10.122',-0.495,0.485
'13:10.125',-0.480,0.510
'13:10.128',-0.490,0.530
'13:10.131',-0.470,0.560
'13:10.133',-0.465,0.560
'13:10.136',-0.490,0.565
'13:10.139',-0.505,0.550
'13:10.142',-0.525,0.560
'13:10.144',-0.530,0.585
'13:10.147',-0.520,0.615
'13:10.150',-0.520,0.630
'13:10.153',-0.525,0.610
'13:10.156',-0.550,0.600
'13:10.158',-0.550,0.640
'13:10.161',-0.540,0.670
'13:10.164',-0.545,0.670
'13:10.167',-0.550,0.680
'13:10.169',-0.575,0.670
'13:10.172',-0.595,0.675
'13:10.175',-0.595,0.695
'13:10.178',-0.570,0.710
'13:10.181',-0.565,0.735
'13:10.183',-0.560,0.745
'13:10.186',-0.580,0.730
'13:10.189',-0.600,0.740
'13:10.192',-0.610,0.770
'13:10.194',-0.610,0.795
'13:10.197',-0.600,0.840
'13:10.200',-0.610,0.845
'13:10.203',-0.630,0.865
'13:10.206',-0.660,0.855
'13:10.208',-0.670,0.890
'13:10.211',-0.670,0.915
'13:10.214',-0.655,0.935
'13:10.217',-0.640,0.955
'13:10.219',-0.665,0.950
'13:10.222',-0.700,0.955
'13:10.225',-0.720,0.995
'13:10.228',-0.715,1.020
'13:10.231',-0.715,1.065
'13:10.233',-0.725,1.055
'13:10.236',-0.730,1.060
'13:10.239',-0.750,1.070
'13:10.242',-0.770,1.085
'13:10.244',-0.775,1.120
'13:10.247',-0.780,1.145
'13:10.250',-0.790,1.120
'13:10.253',-0.790,1.095
'13:10.256',-0.810,1.080
'13:10.258',-0.835,1.105
'13:10.261',-0.820,1.120
'13:10.264',-0.825,1.130
'13:10.267',-0.810,1.100
'13:10.269',-0.825,1.090
'13:10.272',-0.840,1.080
'13:10.275',-0.825,1.065
'13:10.278',-0.825,1.045
'13:10.281',-0.800,1.025
'13:10.283',-0.790,0.980
'13:10.286',-0.795,0.950
'13:10.289',-0.785,0.905
'13:10.292',-0.765,0.890
'13:10.294',-0.725,0.855
'13:10.297',-0.710,0.840
'13:10.300',-0.680,0.800
'13:10.303',-0.670,0.745
'13:10.306',-0.650,0.715
'13:10.308',-0.620,0.690
'13:10.311',-0.575,0.675
'13:10.314',-0.525,0.675
'13:10.317',-0.505,0.645
'13:10.319',-0.500,0.595
'13:10.322',-0.475,0.570
'13:10.325',-0.465,0.560
'13:10.328',-0.440,0.545
'13:10.331',-0.405,0.540
'13:10.333',-0.380,0.510
'13:10.336',-0.365,0.480
'13:10.339',-0.355,0.470
'13:10.342',-0.320,0.460
'13:10.344',-0.330,0.465
'13:10.347',-0.295,0.455
'13:10.350',-0.275,0.435
'13:10.353',-0.280,0.425
'13:10.356',-0.275,0.410
'13:10.358',-0.285,0.415
'13:10.361',-0.290,0.415
'13:10.364',-0.260,0.425
'13:10.367',-0.250,0.430
'13:10.369',-0.250,0.400
'13:10.372',-0.270,0.375
'13:10.375',-0.275,0.395
'13:10.378',-0.270,0.405
'13:10.381',-0.245,0.425
'13:10.383',-0.240,0.425
'13:10.386',-0.270,0.410
'13:10.389',-0.270,0.380
'13:10.392',-0.260,0.405
'13:10.394',-0.255,0.405
'13:10.397',-0.230,0.420
'13:10.400',-0.230,0.400
'13:10.403',-0.260,0.390
'13:10.406',-0.280,0.375
'13:10.408',-0.285,0.385
'13:10.411',-0.275,0.400
'13:10.414',-0.245,0.410
'13:10.417',-0.240,0.415
'13:10.419',-0.245,0.395
'13:10.422',-0.285,0.375
'13:10.425',-0.280,0.385
'13:10.428',-0.280,0.405
'13:10.431',-0.265,0.425
'13:10.433',-0.270,0.425
'13:10.436',-0.280,0.410
'13:10.439',-0.285,0.405
'13:10.442',-0.290,0.405
'13:10.444',-0.280,0.410
'13:10.447',-0.275,0.430
'13:10.450',-0.275,0.440
'13:10.453',-0.300,0.420
'13:10.456',-0.295,0.415
'13:10.458',-0.295,0.435
'13:10.461',-0.275,0.445
'13:10.464',-0.265,0.455
'13:10.467',-0.265,0.430
'13:10.469',-0.290,0.410
'13:10.472',-0.300,0.415
'13:10.475',-0.305,0.410
'13:10.478',-0.280,0.420
'13:10.481',-0.265,0.435
'13:10.483',-0.270,0.445
'13:10.486',-0.285,0.430
'13:10.489',-0.305,0.420
'13:10.492',-0.305,0.415
'13:10.494',-0.305,0.440
'13:10.497',-0.290,0.450
'13:10.500',-0.280,0.440
'13:10.503',-0.270,0.435
'13:10.506',-0.280,0.415
'13:10.508',-0.295,0.435
'13:10.511',-0.295,0.425
'13:10.514',-0.280,0.455
'13:10.517',-0.285,0.435
'13:10.519',-0.285,0.425
'13:10.522',-0.275,0.430
'13:10.525',-0.285,0.415
'13:10.528',-0.280,0.420
'13:10.531',-0.255,0.440
'13:10.533',-0.260,0.430
'13:10.536',-0.265,0.420
'13:10.539',-0.285,0.405
'13:10.542',-0.285,0.415
'13:10.544',-0.260,0.435
'13:10.547',-0.255,0.450
'13:10.550',-0.245,0.445
'13:10.553',-0.260,0.435
'13:10.556',-0.290,0.420
'13:10.558',-0.290,0.410
'13:10.561',-0.300,0.435
'13:10.564',-0.265,0.445
'13:10.567',-0.275,0.430
'13:10.569',-0.265,0.410
'13:10.572',-0.265,0.425
'13:10.575',-0.275,0.420
'13:10.578',-0.260,0.435
'13:10.581',-0.255,0.460
'13:10.583',-0.250,0.450
'13:10.586',-0.280,0.420
'13:10.589',-0.275,0.410
'13:10.592',-0.285,0.410
'13:10.594',-0.265,0.430
'13:10.597',-0.235,0.440
'13:10.600',-0.250,0.445
'13:10.603',-0.265,0.440
'13:10.606',-0.285,0.415
'13:10.608',-0.280,0.440
'13:10.611',-0.270,0.455
'13:10.614',-0.250,0.465
'13:10.617',-0.245,0.455
'13:10.619',-0.255,0.435
'13:10.622',-0.270,0.415
'13:10.625',-0.280,0.430
'13:10.628',-0.275,0.450
'13:10.631',-0.285,0.455
'13:10.633',-0.255,0.450
'13:10.636',-0.260,0.435
'13:10.639',-0.275,0.440
'13:10.642',-0.285,0.445
'13:10.644',-0.270,0.445
'13:10.647',-0.250,0.475
'13:10.650',-0.255,0.465
'13:10.653',-0.265,0.455
'13:10.656',-0.255,0.455
'13:10.658',-0.245,0.450
'13:10.661',-0.225,0.465
'13:10.664',-0.210,0.465
'13:10.667',-0.205,0.480
'13:10.669',-0.210,0.460
'13:10.672',-0.225,0.445
'13:10.675',-0.235,0.480
'13:10.678',-0.225,0.490
'13:10.681',-0.200,0.520
'13:10.683',-0.180,0.520
'13:10.686',-0.195,0.500
'13:10.689',-0.200,0.495
'13:10.692',-0.205,0.510
'13:10.694',-0.185,0.515
'13:10.697',-0.175,0.535
'13:10.700',-0.175,0.530
'13:10.703',-0.175,0.500
'13:10.706',-0.175,0.480
'13:10.708',-0.195,0.495
'13:10.711',-0.190,0.485
'13:10.714',-0.200,0.475
'13:10.717',-0.210,0.450
'13:10.719',-0.205,0.435
'13:10.722',-0.210,0.435
'13:10.725',-0.200,0.420
'13:10.728',-0.190,0.460
'13:10.731',-0.180,0.455
'13:10.733',-0.185,0.465
'13:10.736',-0.215,0.450
'13:10.739',-0.245,0.440
'13:10.742',-0.260,0.455
'13:10.744',-0.265,0.460
'13:10.747',-0.245,0.455
'13:10.750',-0.230,0.460
'13:10.753',-0.255,0.440
'13:10.756',-0.275,0.425
'13:10.758',-0.285,0.435
'13:10.761',-0.280,0.455
'13:10.764',-0.275,0.450
'13:10.767',-0.245,0.440
'13:10.769',-0.255,0.435
'13:10.772',-0.275,0.420
'13:10.775',-0.280,0.445
'13:10.778',-0.250,0.465
'13:10.781',-0.255,0.480
'13:10.783',-0.245,0.465
'13:10.786',-0.275,0.455
'13:10.789',-0.275,0.440
'13:10.792',-0.280,0.435
'13:10.794',-0.255,0.445
'13:10.797',-0.230,0.445
'13:10.800',-0.240,0.460
'13:10.803',-0.245,0.430
'13:10.806',-0.260,0.430
'13:10.808',-0.255,0.440
'13:10.811',-0.240,0.465
'13:10.814',-0.235,0.460
'13:10.817',-0.220,0.470
'13:10.819',-0.250,0.465
'13:10.822',-0.275,0.465
'13:10.825',-0.275,0.495
'13:10.828',-0.275,0.515
'13:10.831',-0.260,0.545
'13:10.833',-0.230,0.535
'13:10.836',-0.240,0.485
'13:10.839',-0.205,0.400
'13:10.842',-0.120,0.320
'13:10.844',0.025,0.215
'13:10.847',0.190,0.095
'13:10.850',0.325,-0.045
'13:10.853',0.440,-0.190
'13:10.856',0.560,-0.315
'13:10.858',0.705,-0.435
'13:10.861',0.900,-0.540
'13:10.864',1.125,-0.590
'13:10.867',1.370,-0.625
'13:10.869',1.600,-0.680
'13:10.872',1.835,-0.705
'13:10.875',2.055,-0.680
'13:10.878',2.210,-0.640
'13:10.881',2.305,-0.610
'13:10.883',2.315,-0.610
'13:10.886',2.280,-0.600
'13:10.889',2.190,-0.620
'13:10.892',2.005,-0.565
'13:10.894',1.680,-0.500
'13:10.897',1.255,-0.430
'13:10.900',0.860,-0.385
'13:10.903',0.610,-0.330
'13:10.906',0.465,-0.255
'13:10.908',0.405,-0.170
'13:10.911',0.400,-0.065
'13:10.914',0.380,0.020
'13:10.917',0.350,0.065
'13:10.919',0.285,0.105
'13:10.922',0.175,0.145
'13:10.925',0.100,0.195
'13:10.928',0.055,0.250
'13:10.931',0.050,0.310
'13:10.933',0.020,0.335
'13:10.936',-0.015,0.355
'13:10.939',-0.065,0.395
'13:10.942',-0.100,0.420
'13:10.944',-0.125,0.480
'13:10.947',-0.160,0.540
'13:10.950',-0.205,0.575
'13:10.953',-0.260,0.605
'13:10.956',-0.300,0.640
'13:10.958',-0.335,0.675
'13:10.961',-0.360,0.710
'13:10.964',-0.385,0.730
'13:10.967',-0.415,0.735
'13:10.969',-0.430,0.730
'13:10.972',-0.445,0.710
'13:10.975',-0.460,0.735
'13:10.978',-0.460,0.765
'13:10.981',-0.455,0.785
'13:10.983',-0.475,0.785
'13:10.986',-0.485,0.790
'13:10.989',-0.510,0.790
'13:10.992',-0.510,0.790
'13:10.994',-0.500,0.825
'13:10.997',-0.490,0.850
'13:11.000',-0.470,0.850
'13:11.003',-0.490,0.835
'13:11.006',-0.520,0.825
'13:11.008',-0.535,0.850
'13:11.011',-0.525,0.880
'13:11.014',-0.515,0.910
'13:11.017',-0.505,0.910
'13:11.019',-0.515,0.910
'13:11.022',-0.540,0.900
'13:11.025',-0.565,0.925
'13:11.028',-0.570,0.960
'13:11.031',-0.565,1.000
'13:11.033',-0.545,0.990
'13:11.036',-0.555,0.995
'13:11.039',-0.570,1.000
'13:11.042',-0.590,1.025
'13:11.044',-0.605,1.060
'13:11.047',-0.590,1.090
'13:11.050',-0.605,1.105
'13:11.053',-0.610,1.125
'13:11.056',-0.630,1.135
'13:11.058',-0.645,1.140
'13:11.061',-0.645,1.190
'13:11.064',-0.655,1.215
'13:11.067',-0.660,1.230
'13:11.069',-0.680,1.225
'13:11.072',-0.705,1.245
'13:11.075',-0.705,1.265
'13:11.078',-0.710,1.295
'13:11.081',-0.715,1.305
'13:11.083',-0.725,1.295
'13:11.086',-0.755,1.285
'13:11.089',-0.790,1.275
'13:11.092',-0.800,1.290
'13:11.094',-0.780,1.310
'13:11.097',-0.760,1.345
'13:11.100',-0.775,1.320
'13:11.103',-0.795,1.300
'13:11.106',-0.805,1.290
'13:11.108',-0.815,1.290
'13:11.111',-0.815,1.280
'13:11.114',-0.790,1.290
'13:11.117',-0.780,1.280
'13:11.119',-0.795,1.235
'13:11.122',-0.805,1.195
'13:11.125',-0.815,1.190
'13:11.128',-0.790,1.185
'13:11.131',-0.755,1.160
'13:11.133',-0.725,1.130
'13:11.136',-0.720,1.105
'13:11.139',-0.730,1.070
'13:11.142',-0.715,1.030
'13:11.144',-0.685,1.020
'13:11.147',-0.645,1.015
'13:11.150',-0.635,0.960
'13:11.153',-0.615,0.925
'13:11.156',-0.600,0.875
'13:11.158',-0.560,0.845
'13:11.161',-0.505,0.835
'13:11.164',-0.470,0.810
'13:11.167',-0.445,0.770
'13:11.169',-0.425,0.740
'13:11.172',-0.420,0.705
'13:11.175',-0.380,0.680
'13:11.178',-0.345,0.675
'13:11.181',-0.305,0.680
'13:11.183',-0.295,0.660
'13:11.186',-0.290,0.645
'13:11.189',-0.285,0.610
'13:11.192',-0.270,0.605
'13:11.194',-0.235,0.615
'13:11.197',-0.215,0.595
'13:11.200',-0.205,0.610
'13:11.203',-0.210,0.590
'13:11.206',-0.230,0.560
'13:11.208',-0.215,0.565
'13:11.211',-0.220,0.580
'13:11.214',-0.195,0.595
'13:11.217',-0.195,0.575
'13:11.219',-0.190,0.570
'13:11.222',-0.200,0.550
'13:11.225',-0.215,0.545
'13:11.228',-0.210,0.555
'13:11.231',-0.215,0.575
'13:11.233',-0.210,0.560
'13:11.236',-0.215,0.560
'13:11.239',-0.205,0.520
'13:11.242',-0.205,0.555
'13:11.244',-0.195,0.570
'13:11.247',-0.200,0.595
'13:11.250',-0.190,0.580
'13:11.253',-0.185,0.555
'13:11.256',-0.210,0.540
'13:11.258',-0.210,0.550
'13:11.261',-0.205,0.570
'13:11.264',-0.195,0.585
'13:11.267',-0.190,0.575
'13:11.269',-0.200,0.555
'13:11.272',-0.215,0.545
'13:11.275',-0.225,0.560
'13:11.278',-0.230,0.570
'13:11.281',-0.205,0.595
'13:11.283',-0.200,0.575
'13:11.286',-0.210,0.575
'13:11.289',-0.235,0.560
'13:11.292',-0.245,0.565
'13:11.294',-0.235,0.575
'13:11.297',-0.220,0.600
'13:11.300',-0.215,0.590
'13:11.303',-0.215,0.560
'13:11.306',-0.225,0.555
'13:11.308',-0.245,0.570
'13:11.311',-0.235,0.595
'13:11.314',-0.225,0.590
'13:11.317',-0.230,0.595
'13:11.319',-0.215,0.575
'13:11.322',-0.230,0.555
'13:11.325',-0.230,0.550
'13:11.328',-0.230,0.575
'13:11.331',-0.235,0.590
'13:11.333',-0.240,0.585
'13:11.336',-0.230,0.565
'13:11.339',-0.250,0.565
'13:11.342',-0.240,0.560
'13:11.344',-0.225,0.570
'13:11.347',-0.200,0.580
'13:11.350',-0.200,0.570
'13:11.353',-0.215,0.570
'13:11.356',-0.225,0.555
'13:11.358',-0.235,0.560
'13:11.361',-0.240,0.575
'13:11.364',-0.215,0.585
'13:11.367',-0.190,0.570
'13:11.369',-0.200,0.560
'13:11.372',-0.225,0.530
'13:11.375',-0.245,0.540
'13:11.378',-0.245,0.560
'13:11.381',-0.210,0.575
'13:11.383',-0.205,0.560
'13:11.386',-0.200,0.540
'13:11.389',-0.200,0.525
'13:11.392',-0.210,0.545
'13:11.394',-0.215,0.550
'13:11.397',-0.205,0.560
'13:11.400',-0.185,0.545
'13:11.403',-0.195,0.545
'13:11.406',-0.215,0.525
'13:11.408',-0.210,0.525
'13:11.411',-0.220,0.535
'13:11.414',-0.185,0.550
'13:11.417',-0.190,0.540
'13:11.419',-0.200,0.520
'13:11.422',-0.220,0.510
'13:11.425',-0.220,0.520
'13:11.428',-0.225,0.530
'13:11.431',-0.200,0.560
'13:11.433',-0.190,0.550
'13:11.436',-0.190,0.510
'13:11.439',-0.210,0.515
'13:11.442',-0.210,0.510
'13:11.444',-0.205,0.520
'13:11.447',-0.185,0.555
'13:11.450',-0.190,0.540
'13:11.453',-0.210,0.525
'13:11.456',-0.205,0.515
'13:11.458',-0.210,0.545
'13:11.461',-0.195,0.550
'13:11.464',-0.180,0.560
'13:11.467',-0.165,0.560
'13:11.469',-0.175,0.545
'13:11.472',-0.185,0.540
'13:11.475',-0.180,0.565
'13:11.478',-0.180,0.570
'13:11.481',-0.160,0.595
'13:11.483',-0.155,0.590
'13:11.486',-0.160,0.565
'13:11.489',-0.145,0.565
'13:11.492',-0.145,0.585
'13:11.494',-0.125,0.595
'13:11.497',-0.105,0.615
'13:11.500',-0.115,0.605
'13:11.503',-0.115,0.585
'13:11.506',-0.130,0.550
'13:11.508',-0.130,0.530
'13:11.511',-0.125,0.530
'13:11.514',-0.115,0.535
'13:11.517',-0.140,0.505
'13:11.519',-0.155,0.505
'13:11.522',-0.185,0.480
'13:11.525',-0.200,0.485
'13:11.528',-0.195,0.490
'13:11.531',-0.170,0.490
'13:11.533',-0.150,0.490
'13:11.536',-0.160,0.470
'13:11.539',-0.185,0.475
'13:11.542',-0.215,0.475
'13:11.544',-0.215,0.485
'13:11.547',-0.200,0.485
'13:11.550',-0.205,0.485
'13:11.553',-0.210,0.470
'13:11.556',-0.240,0.465
'13:11.558',-0.245,0.465
'13:11.561',-0.250,0.475
'13:11.564',-0.240,0.480
'13:11.567',-0.225,0.475
'13:11.569',-0.220,0.460
'13:11.572',-0.230,0.450
'13:11.575',-0.225,0.450
'13:11.578',-0.220,0.470
'13:11.581',-0.210,0.490
'13:11.583',-0.220,0.465
'13:11.586',-0.230,0.455
'13:11.589',-0.240,0.445
'13:11.592',-0.230,0.430
'13:11.594',-0.205,0.450
'13:11.597',-0.200,0.465
'13:11.600',-0.180,0.455
'13:11.603',-0.180,0.450
'13:11.606',-0.195,0.425
'13:11.608',-0.210,0.445
'13:11.611',-0.185,0.440
'13:11.614',-0.175,0.470
'13:11.617',-0.170,0.470
'13:11.619',-0.180,0.460
'13:11.622',-0.200,0.465
'13:11.625',-0.190,0.480
'13:11.628',-0.185,0.515
'13:11.631',-0.175,0.520
'13:11.633',-0.140,0.470
'13:11.636',-0.090,0.395
'13:11.639',0.025,0.270
'13:11.642',0.170,0.165
'13:11.644',0.320,0.035
'13:11.647',0.500,-0.105
'13:11.650',0.675,-0.230
'13:11.653',0.860,-0.360
'13:11.656',1.070,-0.450
'13:11.658',1.335,-0.495
'13:11.661',1.615,-0.515
'13:11.664',1.905,-0.545
'13:11.667',2.155,-0.580
'13:11.669',2.300,-0.595
'13:11.672',2.330,-0.615
'13:11.675',2.300,-0.605
'13:11.678',2.215,-0.595
'13:11.681',2.010,-0.560
'13:11.683',1.610,-0.540
'13:11.686',1.105,-0.505
'13:11.689',0.700,-0.460
'13:11.692',0.465,-0.380
'13:11.694',0.385,-0.270
'13:11.697',0.400,-0.145
'13:11.700',0.410,-0.065
'13:11.703',0.385,-0.010
'13:11.706',0.300,0.020
'13:11.708',0.225,0.055
'13:11.711',0.175,0.115
'13:11.714',0.145,0.160
'13:11.717',0.110,0.205
'13:11.719',0.080,0.255
'13:11.722',0.060,0.285
'13:11.725',0.015,0.345
'13:11.728',-0.020,0.385
'13:11.731',-0.060,0.450
'13:11.733',-0.110,0.475
'13:11.736',-0.170,0.505
'13:11.739',-0.210,0.530
'13:11.742',-0.230,0.575
'13:11.744',-0.255,0.615
'13:11.747',-0.290,0.640
'13:11.750',-0.315,0.635
'13:11.753',-0.350,0.655
'13:11.756',-0.370,0.655
'13:11.758',-0.370,0.670
'13:11.761',-0.365,0.700
'13:11.764',-0.360,0.720
'13:11.767',-0.370,0.715
'13:11.769',-0.375,0.700
'13:11.772',-0.390,0.690
'13:11.775',-0.400,0.690
'13:11.778',-0.405,0.740
'13:11.781',-0.385,0.770
'13:11.783',-0.400,0.765
'13:11.786',-0.410,0.760
'13:11.789',-0.430,0.760
'13:11.792',-0.435,0.775
'13:11.794',-0.430,0.795
'13:11.797',-0.415,0.815
'13:11.800',-0.405,0.825
'13:11.803',-0.430,0.830
'13:11.806',-0.445,0.825
'13:11.808',-0.460,0.830
'13:11.811',-0.445,0.865
'13:11.814',-0.445,0.890
'13:11.817',-0.425,0.895
'13:11.819',-0.435,0.895
'13:11.822',-0.455,0.900
'13:11.825',-0.485,0.925
'13:11.828',-0.485,0.955
'13:11.831',-0.490,0.995
'13:11.833',-0.470,1.005
'13:11.836',-0.480,0.995
'13:11.839',-0.510,1.000
'13:11.842',-0.515,1.035
'13:11.844',-0.540,1.065
'13:11.847',-0.545,1.085
'13:11.850',-0.540,1.100
'13:11.853',-0.555,1.105
'13:11.856',-0.580,1.100
'13:11.858',-0.605,1.130
'13:11.861',-0.600,1.130
'13:11.864',-0.610,1.165
'13:11.867',-0.610,1.170
'13:11.869',-0.615,1.165
'13:11.872',-0.630,1.155
'13:11.875',-0.640,1.175
'13:11.878',-0.645,1.185
'13:11.881',-0.640,1.190
'13:11.883',-0.655,1.180
'13:11.886',-0.670,1.175
'13:11.889',-0.690,1.150
'13:11.892',-0.685,1.150
'13:11.894',-0.675,1.135
'13:11.897',-0.655,1.125
'13:11.900',-0.660,1.110
'13:11.903',-0.660,1.075
'13:11.906',-0.680,1.040
'13:11.908',-0.675,1.020
'13:11.911',-0.655,1.025
'13:11.914',-0.615,1.005
'13:11.917',-0.600,0.960
'13:11.919',-0.600,0.915
'13:11.922',-0.590,0.865
'13:11.925',-0.555,0.830
'13:11.928',-0.520,0.815
'13:11.931',-0.475,0.800
'13:11.933',-0.440,0.775
'13:11.936',-0.430,0.720
'13:11.939',-0.425,0.675
'13:11.942',-0.390,0.645
'13:11.944',-0.355,0.635
'13:11.947',-0.325,0.630
'13:11.950',-0.285,0.610
'13:11.953',-0.255,0.560
'13:11.956',-0.255,0.535
'13:11.958',-0.235,0.525
'13:11.961',-0.230,0.510
'13:11.964',-0.195,0.510
'13:11.967',-0.190,0.500
'13:11.969',-0.180,0.450
'13:11.972',-0.180,0.435
'13:11.975',-0.170,0.440
'13:11.978',-0.165,0.445
'13:11.981',-0.150,0.455
'13:11.983',-0.145,0.445
'13:11.986',-0.140,0.420
'13:11.989',-0.155,0.395
'13:11.992',-0.155,0.390
'13:11.994',-0.135,0.405
'13:11.997',-0.125,0.425
'13:12.000',-0.125,0.415
'13:12.003',-0.135,0.400
'13:12.006',-0.150,0.395
'13:12.008',-0.165,0.380
'13:12.011',-0.160,0.395
'13:12.014',-0.130,0.405
'13:12.017',-0.115,0.400
'13:12.019',-0.130,0.395
'13:12.022',-0.140,0.375
'13:12.025',-0.150,0.380
'13:12.028',-0.155,0.405
'13:12.031',-0.145,0.400
'13:12.033',-0.125,0.405
'13:12.036',-0.135,0.380
'13:12.039',-0.145,0.365
'13:12.042',-0.155,0.375
'13:12.044',-0.160,0.390
'13:12.047',-0.145,0.410
'13:12.050',-0.135,0.410
'13:12.053',-0.140,0.400
'13:12.056',-0.170,0.380
'13:12.058',-0.160,0.395
'13:12.061',-0.140,0.405
'13:12.064',-0.150,0.415
'13:12.067',-0.145,0.410
'13:12.069',-0.140,0.390
'13:12.072',-0.170,0.385
'13:12.075',-0.160,0.385
'13:12.078',-0.135,0.400
'13:12.081',-0.145,0.425
'13:12.083',-0.140,0.405
'13:12.086',-0.155,0.385
'13:12.089',-0.165,0.380
'13:12.092',-0.165,0.390
'13:12.094',-0.145,0.410
'13:12.097',-0.130,0.420
'13:12.100',-0.135,0.415
'13:12.103',-0.150,0.385
'13:12.106',-0.160,0.380
'13:12.108',-0.160,0.375
'13:12.111',-0.150,0.380
'13:12.114',-0.130,0.410
'13:12.117',-0.110,0.415
'13:12.119',-0.130,0.380
'13:12.122',-0.150,0.370
'13:12.125',-0.150,0.390
'13:12.128',-0.155,0.385
'13:12.131',-0.145,0.385
'13:12.133',-0.125,0.380
'13:12.136',-0.135,0.375
'13:12.139',-0.130,0.355
'13:12.142',-0.150,0.365
'13:12.144',-0.145,0.360
'13:12.147',-0.135,0.365
'13:12.150',-0.130,0.355
'13:12.153',-0.135,0.330
'13:12.156',-0.140,0.330
'13:12.158',-0.155,0.345
'13:12.161',-0.150,0.370
'13:12.164',-0.150,0.380
'13:12.167',-0.140,0.355
'13:12.169',-0.145,0.350
'13:12.172',-0.155,0.310
'13:12.175',-0.150,0.330
'13:12.178',-0.135,0.340
'13:12.181',-0.120,0.345
'13:12.183',-0.130,0.340
'13:12.186',-0.140,0.320
'13:12.189',-0.155,0.325
'13:12.192',-0.165,0.315
'13:12.194',-0.150,0.330
'13:12.197',-0.120,0.345
'13:12.200',-0.110,0.340
'13:12.203',-0.125,0.330
'13:12.206',-0.155,0.320
'13:12.208',-0.175,0.320
'13:12.211',-0.160,0.320
'13:12.214',-0.135,0.355
'13:12.217',-0.120,0.355
'13:12.219',-0.115,0.320
'13:12.222',-0.130,0.320
'13:12.225',-0.150,0.310
'13:12.228',-0.155,0.330
'13:12.231',-0.115,0.360
'13:12.233',-0.100,0.375
'13:12.236',-0.115,0.360
'13:12.239',-0.125,0.350
'13:12.242',-0.125,0.365
'13:12.244',-0.110,0.380
'13:12.247',-0.085,0.390
'13:12.250',-0.080,0.395
'13:12.253',-0.080,0.380
'13:12.256',-0.090,0.380
'13:12.258',-0.090,0.410
'13:12.261',-0.070,0.425
'13:12.264',-0.065,0.440
'13:12.267',-0.055,0.415
'13:12.269',-0.080,0.400
'13:12.272',-0.080,0.380
'13:12.275',-0.095,0.365
'13:12.278',-0.095,0.380
'13:12.281',-0.075,0.365
'13:12.283',-0.060,0.355
'13:12.286',-0.080,0.320
'13:12.289',-0.115,0.300
'13:12.292',-0.125,0.300
'13:12.294',-0.130,0.310
'13:12.297',-0.115,0.320
'13:12.300',-0.110,0.305
'13:12.303',-0.115,0.295
'13:12.306',-0.120,0.280
'13:12.308',-0.145,0.295
'13:12.311',-0.155,0.295
'13:12.314',-0.155,0.305
'13:12.317',-0.155,0.295
'13:12.319',-0.160,0.280
'13:12.322',-0.175,0.285
'13:12.325',-0.175,0.295
'13:12.328',-0.175,0.300
'13:12.331',-0.165,0.305
'13:12.333',-0.155,0.290
'13:12.336',-0.175,0.285
'13:12.339',-0.200,0.265
'13:12.342',-0.190,0.275
'13:12.344',-0.170,0.290
'13:12.347',-0.165,0.295
'13:12.350',-0.170,0.285
'13:12.353',-0.180,0.260
'13:12.356',-0.195,0.250
'13:12.358',-0.185,0.240
'13:12.361',-0.170,0.270
'13:12.364',-0.140,0.275
'13:12.367',-0.125,0.270
'13:12.369',-0.145,0.255
'13:12.372',-0.150,0.245
'13:12.375',-0.170,0.245
'13:12.378',-0.170,0.245
'13:12.381',-0.140,0.275
'13:12.383',-0.130,0.280
'13:12.386',-0.145,0.280
'13:12.389',-0.145,0.280
'13:12.392',-0.155,0.320
'13:12.394',-0.150,0.345
'13:12.397',-0.130,0.345
'13:12.400',-0.105,0.310
'13:12.403',-0.055,0.220
'13:12.406',0.035,0.105
'13:12.408',0.160,0.005
'13:12.411',0.285,-0.100
'13:12.414',0.405,-0.190
'13:12.417',0.500,-0.315
'13:12.419',0.610,-0.435
'13:12.422',0.715,-0.530
'13:12.425',0.830,-0.600
'13:12.428',0.975,-0.660
'13:12.431',1.165,-0.705
'13:12.433',1.405,-0.760
'13:12.436',1.680,-0.805
'13:12.439',1.925,-0.825
'13:12.442',2.130,-0.820
'13:12.444',2.255,-0.805
'13:12.447',2.285,-0.785
'13:12.450',2.185,-0.800
'13:12.453',1.925,-0.805
'13:12.456',1.490,-0.810
'13:12.458',1.030,-0.755
'13:12.461',0.690,-0.700
'13:12.464',0.495,-0.630
'13:12.467',0.435,-0.575
'13:12.469',0.410,-0.500
'13:12.472',0.400,-0.410
'13:12.475',0.400,-0.300
'13:12.478',0.405,-0.220
'13:12.481',0.390,-0.130
'13:12.483',0.360,-0.100
'13:12.486',0.285,-0.060
'13:12.489',0.205,0.005
'13:12.492',0.150,0.055
'13:12.494',0.100,0.115
'13:12.497',0.085,0.170
'13:12.500',0.065,0.205
'13:12.503',0.025,0.240
'13:12.506',-0.040,0.250
'13:12.508',-0.085,0.295
'13:12.511',-0.115,0.355
'13:12.514',-0.130,0.385
'13:12.517',-0.150,0.400
'13:12.519',-0.190,0.435
'13:12.522',-0.240,0.445
'13:12.525',-0.290,0.480
'13:12.528',-0.310,0.520
'13:12.531',-0.315,0.530
'13:12.533',-0.325,0.530
'13:12.536',-0.335,0.535
'13:12.539',-0.340,0.530
'13:12.542',-0.350,0.540
'13:12.544',-0.350,0.570
'13:12.547',-0.355,0.580
'13:12.550',-0.360,0.590
'13:12.553',-0.375,0.585
'13:12.556',-0.380,0.590
'13:12.558',-0.380,0.590
'13:12.561',-0.355,0.610
'13:12.564',-0.345,0.660
'13:12.567',-0.350,0.645
'13:12.569',-0.375,0.655
'13:12.572',-0.390,0.630
'13:12.575',-0.400,0.660
'13:12.578',-0.390,0.675
'13:12.581',-0.385,0.705
'13:12.583',-0.375,0.720
'13:12.586',-0.395,0.715
'13:12.589',-0.425,0.710
'13:12.592',-0.430,0.735
'13:12.594',-0.425,0.750
'13:12.597',-0.430,0.785
'13:12.600',-0.415,0.795
'13:12.603',-0.415,0.795
'13:12.606',-0.440,0.790
'13:12.608',-0.450,0.820
'13:12.611',-0.460,0.840
'13:12.614',-0.460,0.870
'13:12.617',-0.455,0.905
'13:12.619',-0.475,0.915
'13:12.622',-0.495,0.905
'13:12.625',-0.510,0.930
'13:12.628',-0.510,0.960
'13:12.631',-0.530,0.975
'13:12.633',-0.525,0.985
'13:12.636',-0.530,0.980
'13:12.639',-0.555,0.980
'13:12.642',-0.560,0.995
'13:12.644',-0.555,1.030
'13:12.647',-0.570,1.050
'13:12.650',-0.565,1.050
'13:12.653',-0.585,1.035
'13:12.656',-0.600,1.025
'13:12.658',-0.630,1.035
'13:12.661',-0.625,1.070
'13:12.664',-0.635,1.075
'13:12.667',-0.635,1.075
'13:12.669',-0.660,1.040
'13:12.672',-0.665,1.015
'13:12.675',-0.665,1.005
'13:12.678',-0.645,1.000
'13:12.681',-0.625,1.010
'13:12.683',-0.620,0.965
'13:12.686',-0.640,0.950
'13:12.689',-0.645,0.910
'13:12.692',-0.640,0.895
'13:12.694',-0.630,0.875
'13:12.697',-0.615,0.860
'13:12.700',-0.590,0.820
'13:12.703',-0.565,0.775
'13:12.706',-0.545,0.740
'13:12.708',-0.535,0.705
'13:12.711',-0.515,0.675
'13:12.714',-0.465,0.665
'13:12.717',-0.420,0.625
'13:12.719',-0.385,0.570
'13:12.722',-0.375,0.545
'13:12.725',-0.350,0.510
'13:12.728',-0.315,0.505
'13:12.731',-0.275,0.500
'13:12.733',-0.255,0.475
'13:12.736',-0.235,0.440
'13:12.739',-0.215,0.415
'13:12.742',-0.205,0.400
'13:12.744',-0.180,0.395
'13:12.747',-0.150,0.385
'13:12.750',-0.140,0.365
'13:12.753',-0.145,0.345
'13:12.756',-0.165,0.330
'13:12.758',-0.140,0.325
'13:12.761',-0.120,0.335
'13:12.764',-0.115,0.325
'13:12.767',-0.105,0.315
'13:12.769',-0.105,0.285
'13:12.772',-0.105,0.275
'13:12.775',-0.120,0.280
'13:12.778',-0.105,0.295
'13:12.781',-0.085,0.310
'13:12.783',-0.080,0.305
'13:12.786',-0.095,0.285
'13:12.789',-0.115,0.275
'13:12.792',-0.125,0.265
'13:12.794',-0.125,0.290
'13:12.797',-0.125,0.310
'13:12.800',-0.100,0.305
'13:12.803',-0.100,0.290
'13:12.806',-0.120,0.285
'13:12.808',-0.115,0.285
'13:12.811',-0.115,0.295
'13:12.814',-0.105,0.320
'13:12.817',-0.105,0.300
'13:12.819',-0.110,0.280
'13:12.822',-0.120,0.285
'13:12.825',-0.130,0.315
'13:12.828',-0.105,0.335
'13:12.831',-0.100,0.355
'13:12.833',-0.110,0.360
'13:12.836',-0.135,0.320
'13:12.839',-0.165,0.325
'13:12.842',-0.165,0.345
'13:12.844',-0.165,0.360
'13:12.847',-0.155,0.395
'13:12.850',-0.160,0.395
'13:12.853',-0.185,0.385
'13:12.856',-0.200,0.410
'13:12.858',-0.235,0.425
'13:12.861',-0.255,0.460
'13:12.864',-0.255,0.505
'13:12.867',-0.270,0.530
'13:12.869',-0.270,0.565
'13:12.872',-0.270,0.615
'13:12.875',-0.215,0.695
'13:12.878',-0.125,0.800
'13:12.881',0.010,0.905
'13:12.883',0.185,0.960
'13:12.886',0.380,0.990
'13:12.889',0.585,1.045
'13:12.892',0.795,1.110
'13:12.894',1.015,1.135
'13:12.897',1.180,1.155
'13:12.900',1.315,1.145
'13:12.903',1.385,1.110
'13:12.906',1.385,1.075
'13:12.908',1.305,1.065
'13:12.911',1.195,1.060
'13:12.914',1.080,1.085
'13:12.917',0.980,1.110
'13:12.919',0.865,1.150
'13:12.922',0.700,1.205
'13:12.925',0.540,1.275
'13:12.928',0.395,1.280
'13:12.931',0.240,1.255
'13:12.933',0.075,1.190
'13:12.936',-0.105,1.120
'13:12.939',-0.275,1.030
'13:12.942',-0.415,0.960
'13:12.944',-0.505,0.905
'13:12.947',-0.580,0.845
'13:12.950',-0.620,0.750
'13:12.953',-0.660,0.655
'13:12.956',-0.670,0.580
'13:12.958',-0.655,0.520
'13:12.961',-0.600,0.465
'13:12.964',-0.520,0.415
'13:12.967',-0.440,0.350
'13:12.969',-0.380,0.300
'13:12.972',-0.325,0.255
'13:12.975',-0.280,0.240
'13:12.978',-0.225,0.235
'13:12.981',-0.215,0.260
'13:12.983',-0.240,0.220
'13:12.986',-0.255,0.175
'13:12.989',-0.265,0.155
'13:12.992',-0.275,0.160
'13:12.994',-0.265,0.150
'13:12.997',-0.260,0.175
'13:13.000',-0.230,0.170
'13:13.003',-0.245,0.140
'13:13.006',-0.270,0.135
'13:13.008',-0.280,0.125
'13:13.011',-0.275,0.120
'13:13.014',-0.275,0.125
'13:13.017',-0.255,0.115
'13:13.019',-0.255,0.095
'13:13.022',-0.250,0.065
'13:13.025',-0.245,0.065
'13:13.028',-0.225,0.070
'13:13.031',-0.205,0.085
'13:13.033',-0.205,0.085
'13:13.036',-0.240,0.055
'13:13.039',-0.260,0.040
'13:13.042',-0.240,0.050
'13:13.044',-0.205,0.050
'13:13.047',-0.160,0.060
'13:13.050',-0.145,0.035
'13:13.053',-0.150,0.030
'13:13.056',-0.170,0.005
'13:13.058',-0.175,0.000
'13:13.061',-0.170,-0.010
'13:13.064',-0.135,0.010
'13:13.067',-0.110,0.005
'13:13.069',-0.105,-0.020
'13:13.072',-0.110,-0.035
'13:13.075',-0.120,-0.030
'13:13.078',-0.125,-0.025
'13:13.081',-0.105,-0.010
'13:13.083',-0.110,-0.015
'13:13.086',-0.115,-0.060
'13:13.089',-0.120,-0.080
'13:13.092',-0.130,-0.085
'13:13.094',-0.115,-0.075
'13:13.097',-0.095,-0.065
'13:13.100',-0.090,-0.085
'13:13.103',-0.095,-0.100
'13:13.106',-0.095,-0.115
'13:13.108',-0.085,-0.125
'13:13.111',-0.060,-0.125
'13:13.114',-0.030,-0.120
'13:13.117',-0.015,-0.130
'13:13.119',-0.030,-0.150
'13:13.122',-0.030,-0.175
'13:13.125',-0.030,-0.160
'13:13.128',-0.015,-0.175
'13:13.131',0.015,-0.165
'13:13.133',0.040,-0.180
'13:13.136',0.040,-0.210
'13:13.139',0.050,-0.225
'13:13.142',0.040,-0.225
'13:13.144',0.070,-0.215
'13:13.147',0.105,-0.215
'13:13.150',0.130,-0.225
'13:13.153',0.160,-0.255
'13:13.156',0.165,-0.255
'13:13.158',0.175,-0.260
'13:13.161',0.185,-0.245
'13:13.164',0.225,-0.240
