'Elapsed time','MLII','V1'
'hh:mm:ss.mmm','mV','mV'
'13:00.000',-0.190,0.010
'13:00.003',-0.170,-0.025
'13:00.006',-0.145,-0.035
'13:00.008',-0.095,-0.045
'13:00.011',-0.030,-0.035
'13:00.014',0.045,-0.055
'13:00.017',0.125,-0.080
'13:00.019',0.260,-0.110
'13:00.022',0.395,-0.145
'13:00.025',0.600,-0.185
'13:00.028',0.800,-0.210
'13:00.031',1.000,-0.205
'13:00.033',1.155,-0.140
'13:00.036',1.230,-0.030
'13:00.039',1.190,0.100
'13:00.042',1.025,0.175
'13:00.044',0.800,0.195
'13:00.047',0.505,0.210
'13:00.050',0.195,0.245
'13:00.053',-0.110,0.305
'13:00.056',-0.345,0.355
'13:00.058',-0.430,0.395
'13:00.061',-0.365,0.370
'13:00.064',-0.295,0.310
'13:00.067',-0.255,0.235
'13:00.069',-0.245,0.175
'13:00.072',-0.250,0.150
'13:00.075',-0.260,0.140
'13:00.078',-0.275,0.125
'13:00.081',-0.275,0.120
'13:00.083',-0.270,0.105
'13:00.086',-0.285,0.090
'13:00.089',-0.310,0.075
'13:00.092',-0.295,0.110
'13:00.094',-0.285,0.095
'13:00.097',-0.275,0.090
'13:00.100',-0.295,0.065
'13:00.103',-0.315,0.050
'13:00.106',-0.330,0.055
'13:00.108',-0.320,0.050
'13:00.111',-0.315,0.070
'13:00.114',-0.305,0.065
'13:00.117',-0.305,0.055
'13:00.119',-0.325,0.045
'13:00.122',-0.330,0.035
'13:00.125',-0.325,0.050
'13:00.128',-0.315,0.065
'13:00.131',-0.325,0.060
'13:00.133',-0.325,0.050
'13:00.136',-0.325,0.020
'13:00.139',-0.330,0.040
'13:00.142',-0.320,0.040
'13:00.144',-0.320,0.055
'13:00.147',-0.310,0.045
'13:00.150',-0.330,0.035
'13:00.153',-0.340,0.035
'13:00.156',-0.350,0.035
'13:00.158',-0.335,0.035
'13:00.161',-0.330,0.045
'13:00.164',-0.325,0.060
'13:00.167',-0.320,0.035
'13:00.169',-0.320,0.020
'13:00.172',-0.330,0.020
'13:00.175',-0.325,0.025
'13:00.178',-0.320,0.040
'13:00.181',-0.310,0.025
'13:00.183',-0.305,0.020
'13:00.186',-0.315,-0.005
'13:00.189',-0.310,-0.010
'13:00.192',-0.300,-0.005
'13:00.194',-0.285,0.020
'13:00.197',-0.280,0.010
'13:00.200',-0.285,0.005
'13:00.203',-0.295,0.000
'13:00.206',-0.305,0.000
'13:00.208',-0.295,0.000
'13:00.211',-0.280,0.000
'13:00.214',-0.255,-0.010
'13:00.217',-0.240,-0.040
'13:00.219',-0.245,-0.060
'13:00.222',-0.255,-0.065
'13:00.225',-0.225,-0.075
'13:00.228',-0.205,-0.070
'13:00.231',-0.185,-0.085
'13:00.233',-0.195,-0.115
'13:00.236',-0.215,-0.135
'13:00.239',-0.205,-0.155
'13:00.242',-0.160,-0.155
'13:00.244',-0.145,-0.165
'13:00.247',-0.125,-0.170
'13:00.250',-0.120,-0.195
'13:00.253',-0.135,-0.205
'13:00.256',-0.130,-0.220
'13:00.258',-0.110,-0.220
'13:00.261',-0.105,-0.210
'13:00.264',-0.090,-0.210
'13:00.267',-0.080,-0.230
'13:00.269',-0.095,-0.245
'13:00.272',-0.075,-0.245
'13:00.275',-0.065,-0.230
'13:00.278',-0.065,-0.215
'13:00.281',-0.055,-0.225
'13:00.283',-0.065,-0.230
'13:00.286',-0.085,-0.225
'13:00.289',-0.095,-0.205
'13:00.292',-0.080,-0.195
'13:00.294',-0.075,-0.165
'13:00.297',-0.065,-0.150
'13:00.300',-0.075,-0.155
'13:00.303',-0.085,-0.160
'13:00.306',-0.090,-0.145
'13:00.308',-0.085,-0.130
'13:00.311',-0.075,-0.115
'13:00.314',-0.050,-0.100
'13:00.317',-0.080,-0.080
'13:00.319',-0.110,-0.095
'13:00.322',-0.115,-0.055
'13:00.325',-0.125,-0.030
'13:00.328',-0.115,0.000
'13:00.331',-0.115,0.020
'13:00.333',-0.145,0.020
'13:00.336',-0.170,0.015
'13:00.339',-0.190,0.020
'13:00.342',-0.185,0.040
'13:00.344',-0.175,0.065
'13:00.347',-0.170,0.065
'13:00.350',-0.195,0.075
'13:00.353',-0.215,0.080
'13:00.356',-0.215,0.085
'13:00.358',-0.220,0.105
'13:00.361',-0.210,0.105
'13:00.364',-0.205,0.100
'13:00.367',-0.220,0.085
'13:00.369',-0.225,0.060
'13:00.372',-0.235,0.060
'13:00.375',-0.240,0.075
'13:00.378',-0.220,0.095
'13:00.381',-0.195,0.095
'13:00.383',-0.210,0.090
'13:00.386',-0.220,0.070
'13:00.389',-0.220,0.095
'13:00.392',-0.210,0.100
'13:00.394',-0.175,0.115
'13:00.397',-0.150,0.110
'13:00.400',-0.135,0.090
'13:00.403',-0.135,0.085
'13:00.406',-0.110,0.120
'13:00.408',-0.095,0.145
'13:00.411',-0.050,0.165
'13:00.414',-0.015,0.170
'13:00.417',0.000,0.165
'13:00.419',0.020,0.145
'13:00.422',0.095,0.110
'13:00.425',0.190,0.060
'13:00.428',0.275,-0.005
'13:00.431',0.330,-0.095
'13:00.433',0.380,-0.195
'13:00.436',0.455,-0.280
'13:00.439',0.525,-0.355
'13:00.442',0.595,-0.415
'13:00.444',0.660,-0.465
'13:00.447',0.755,-0.550
'13:00.450',0.820,-0.655
'13:00.453',0.910,-0.770
'13:00.456',1.015,-0.840
'13:00.458',1.100,-0.875
'13:00.461',1.165,-0.895
'13:00.464',1.205,-0.890
'13:00.467',1.200,-0.880
'13:00.469',1.165,-0.855
'13:00.472',1.150,-0.820
'13:00.475',1.140,-0.805
'13:00.478',1.115,-0.780
'13:00.481',1.075,-0.725
'13:00.483',1.015,-0.640
'13:00.486',0.920,-0.565
'13:00.489',0.810,-0.555
'13:00.492',0.695,-0.580
'13:00.494',0.590,-0.625
'13:00.497',0.480,-0.640
'13:00.500',0.350,-0.635
'13:00.503',0.230,-0.605
'13:00.506',0.165,-0.520
'13:00.508',0.140,-0.440
'13:00.511',0.130,-0.355
'13:00.514',0.105,-0.295
'13:00.517',0.080,-0.250
'13:00.519',0.030,-0.210
'13:00.522',-0.015,-0.170
'13:00.525',-0.005,-0.110
'13:00.528',0.035,-0.055
'13:00.531',0.105,-0.040
'13:00.533',0.170,-0.040
'13:00.536',0.160,-0.060
'13:00.539',0.115,-0.035
'13:00.542',-0.020,0.015
'13:00.544',-0.165,0.070
'13:00.547',-0.310,0.120
'13:00.550',-0.395,0.165
'13:00.553',-0.455,0.205
'13:00.556',-0.470,0.265
'13:00.558',-0.485,0.310
'13:00.561',-0.480,0.350
'13:00.564',-0.490,0.345
'13:00.567',-0.505,0.350
'13:00.569',-0.535,0.355
'13:00.572',-0.570,0.360
'13:00.575',-0.575,0.375
'13:00.578',-0.580,0.380
'13:00.581',-0.580,0.375
'13:00.583',-0.600,0.390
'13:00.586',-0.620,0.375
'13:00.589',-0.635,0.395
'13:00.592',-0.640,0.410
'13:00.594',-0.630,0.420
'13:00.597',-0.625,0.415
'13:00.600',-0.645,0.435
'13:00.603',-0.665,0.420
'13:00.606',-0.695,0.430
'13:00.608',-0.700,0.435
'13:00.611',-0.700,0.460
'13:00.614',-0.690,0.460
'13:00.617',-0.685,0.455
'13:00.619',-0.700,0.445
'13:00.622',-0.715,0.475
'13:00.625',-0.730,0.495
'13:00.628',-0.725,0.520
'13:00.631',-0.705,0.515
'13:00.633',-0.720,0.510
'13:00.636',-0.740,0.510
'13:00.639',-0.760,0.530
'13:00.642',-0.770,0.535
'13:00.644',-0.745,0.565
'13:00.647',-0.740,0.570
'13:00.650',-0.755,0.580
'13:00.653',-0.765,0.585
'13:00.656',-0.775,0.595
'13:00.658',-0.775,0.605
'13:00.661',-0.765,0.635
'13:00.664',-0.760,0.645
'13:00.667',-0.775,0.650
'13:00.669',-0.780,0.670
'13:00.672',-0.765,0.670
'13:00.675',-0.740,0.685
'13:00.678',-0.730,0.710
'13:00.681',-0.720,0.720
'13:00.683',-0.715,0.695
'13:00.686',-0.725,0.690
'13:00.689',-0.730,0.700
'13:00.692',-0.720,0.725
'13:00.694',-0.705,0.740
'13:00.697',-0.680,0.735
'13:00.700',-0.670,0.720
'13:00.703',-0.675,0.705
'13:00.706',-0.665,0.700
'13:00.708',-0.650,0.705
'13:00.711',-0.610,0.705
'13:00.714',-0.605,0.695
'13:00.717',-0.575,0.665
'13:00.719',-0.575,0.660
'13:00.722',-0.575,0.655
'13:00.725',-0.540,0.645
'13:00.728',-0.510,0.635
'13:00.731',-0.475,0.615
'13:00.733',-0.465,0.575
'13:00.736',-0.450,0.530
'13:00.739',-0.450,0.530
'13:00.742',-0.415,0.520
'13:00.744',-0.380,0.525
'13:00.747',-0.345,0.495
'13:00.750',-0.345,0.460
'13:00.753',-0.345,0.425
'13:00.756',-0.340,0.400
'13:00.758',-0.335,0.380
'13:00.761',-0.310,0.360
'13:00.764',-0.295,0.340
'13:00.767',-0.295,0.310
'13:00.769',-0.295,0.290
'13:00.772',-0.310,0.295
'13:00.775',-0.295,0.285
'13:00.778',-0.285,0.290
'13:00.781',-0.260,0.260
'13:00.783',-0.255,0.245
'13:00.786',-0.280,0.205
'13:00.789',-0.275,0.190
'13:00.792',-0.275,0.205
'13:00.794',-0.255,0.200
'13:00.797',-0.250,0.180
'13:00.800',-0.245,0.185
'13:00.803',-0.250,0.160
'13:00.806',-0.250,0.170
'13:00.808',-0.250,0.180
'13:00.811',-0.220,0.175
'13:00.814',-0.205,0.170
'13:00.817',-0.215,0.155
'13:00.819',-0.220,0.140
'13:00.822',-0.230,0.145
'13:00.825',-0.230,0.140
'13:00.828',-0.205,0.155
'13:00.831',-0.190,0.145
'13:00.833',-0.190,0.130
'13:00.836',-0.215,0.120
'13:00.839',-0.220,0.135
'13:00.842',-0.210,0.135
'13:00.844',-0.195,0.150
'13:00.847',-0.195,0.155
'13:00.850',-0.195,0.140
'13:00.853',-0.215,0.125
'13:00.856',-0.235,0.120
'13:00.858',-0.225,0.130
'13:00.861',-0.215,0.155
'13:00.864',-0.200,0.155
'13:00.867',-0.205,0.145
'13:00.869',-0.205,0.130
'13:00.872',-0.215,0.135
'13:00.875',-0.210,0.140
'13:00.878',-0.195,0.165
'13:00.881',-0.195,0.160
'13:00.883',-0.195,0.140
'13:00.886',-0.205,0.125
'13:00.889',-0.215,0.110
'13:00.892',-0.210,0.115
'13:00.894',-0.195,0.135
'13:00.897',-0.180,0.130
'13:00.900',-0.175,0.125
'13:00.903',-0.195,0.125
'13:00.906',-0.205,0.125
'13:00.908',-0.200,0.120
'13:00.911',-0.175,0.135
'13:00.914',-0.185,0.115
'13:00.917',-0.190,0.110
'13:00.919',-0.195,0.110
'13:00.922',-0.210,0.105
'13:00.925',-0.205,0.120
'13:00.928',-0.180,0.135
'13:00.931',-0.190,0.120
'13:00.933',-0.195,0.110
'13:00.936',-0.215,0.100
'13:00.939',-0.220,0.100
'13:00.942',-0.205,0.110
'13:00.944',-0.190,0.135
'13:00.947',-0.180,0.135
'13:00.950',-0.185,0.135
'13:00.953',-0.185,0.115
'13:00.956',-0.200,0.115
'13:00.958',-0.185,0.120
'13:00.961',-0.180,0.135
'13:00.964',-0.160,0.130
'13:00.967',-0.175,0.125
'13:00.969',-0.185,0.110
'13:00.972',-0.190,0.110
'13:00.975',-0.180,0.130
'13:00.978',-0.170,0.160
'13:00.981',-0.165,0.140
'13:00.983',-0.165,0.140
'13:00.986',-0.195,0.120
'13:00.989',-0.210,0.115
'13:00.992',-0.190,0.135
'13:00.994',-0.165,0.155
'13:00.997',-0.170,0.145
'13:01.000',-0.170,0.130
'13:01.003',-0.190,0.115
'13:01.006',-0.200,0.115
'13:01.008',-0.200,0.110
'13:01.011',-0.200,0.105
'13:01.014',-0.185,0.090
'13:01.017',-0.190,0.080
'13:01.019',-0.195,0.055
'13:01.022',-0.200,0.075
'13:01.025',-0.185,0.090
'13:01.028',-0.180,0.090
'13:01.031',-0.170,0.085
'13:01.033',-0.175,0.075
'13:01.036',-0.200,0.075
'13:01.039',-0.200,0.080
'13:01.042',-0.200,0.090
'13:01.044',-0.195,0.100
'13:01.047',-0.190,0.100
'13:01.050',-0.190,0.085
'13:01.053',-0.200,0.075
'13:01.056',-0.215,0.065
'13:01.058',-0.215,0.080
'13:01.061',-0.215,0.095
'13:01.064',-0.190,0.100
'13:01.067',-0.190,0.095
'13:01.069',-0.215,0.085
'13:01.072',-0.220,0.080
'13:01.075',-0.215,0.090
'13:01.078',-0.190,0.105
'13:01.081',-0.185,0.100
'13:01.083',-0.190,0.085
'13:01.086',-0.200,0.080
'13:01.089',-0.220,0.085
'13:01.092',-0.200,0.115
'13:01.094',-0.175,0.110
'13:01.097',-0.180,0.105
'13:01.100',-0.185,0.090
'13:01.103',-0.205,0.085
'13:01.106',-0.215,0.090
'13:01.108',-0.210,0.100
'13:01.111',-0.195,0.120
'13:01.114',-0.190,0.125
'13:01.117',-0.200,0.130
'13:01.119',-0.205,0.120
'13:01.122',-0.200,0.135
'13:01.125',-0.195,0.145
'13:01.128',-0.180,0.145
'13:01.131',-0.170,0.150
'13:01.133',-0.195,0.135
'13:01.136',-0.210,0.125
'13:01.139',-0.215,0.115
'13:01.142',-0.200,0.125
'13:01.144',-0.165,0.115
'13:01.147',-0.170,0.090
'13:01.150',-0.165,0.085
'13:01.153',-0.180,0.055
'13:01.156',-0.195,0.060
'13:01.158',-0.180,0.075
'13:01.161',-0.170,0.085
'13:01.164',-0.165,0.090
'13:01.167',-0.180,0.080
'13:01.169',-0.200,0.065
'13:01.172',-0.205,0.070
'13:01.175',-0.185,0.075
'13:01.178',-0.175,0.105
'13:01.181',-0.175,0.095
'13:01.183',-0.180,0.085
'13:01.186',-0.195,0.075
'13:01.189',-0.195,0.090
'13:01.192',-0.200,0.100
'13:01.194',-0.190,0.115
'13:01.197',-0.175,0.110
'13:01.200',-0.180,0.105
'13:01.203',-0.190,0.085
'13:01.206',-0.200,0.100
'13:01.208',-0.200,0.100
'13:01.211',-0.190,0.110
'13:01.214',-0.180,0.100
'13:01.217',-0.185,0.090
'13:01.219',-0.195,0.090
'13:01.222',-0.200,0.090
'13:01.225',-0.190,0.100
'13:01.228',-0.175,0.115
'13:01.231',-0.165,0.095
'13:01.233',-0.170,0.095
'13:01.236',-0.195,0.080
'13:01.239',-0.200,0.085
'13:01.242',-0.200,0.090
'13:01.244',-0.180,0.120
'13:01.247',-0.165,0.125
'13:01.250',-0.150,0.100
'13:01.253',-0.170,0.100
'13:01.256',-0.185,0.100
'13:01.258',-0.190,0.110
'13:01.261',-0.170,0.125
'13:01.264',-0.165,0.120
'13:01.267',-0.175,0.115
'13:01.269',-0.190,0.110
'13:01.272',-0.195,0.110
'13:01.275',-0.180,0.115
'13:01.278',-0.175,0.100
'13:01.281',-0.155,0.085
'13:01.283',-0.155,0.065
'13:01.286',-0.185,0.055
'13:01.289',-0.190,0.060
'13:01.292',-0.175,0.080
'13:01.294',-0.150,0.095
'13:01.297',-0.150,0.075
'13:01.300',-0.135,0.065
'13:01.303',-0.155,0.050
'13:01.306',-0.145,0.035
'13:01.308',-0.135,0.050
'13:01.311',-0.110,0.060
'13:01.314',-0.070,0.040
'13:01.317',-0.025,0.035
'13:01.319',0.020,0.020
'13:01.322',0.110,0.015
'13:01.325',0.225,0.040
'13:01.328',0.365,0.050
'13:01.331',0.555,0.035
'13:01.333',0.735,-0.020
'13:01.336',0.920,-0.095
'13:01.339',1.120,-0.140
'13:01.342',1.310,-0.140
'13:01.344',1.420,-0.065
'13:01.347',1.415,0.010
'13:01.350',1.255,0.045
'13:01.353',0.985,0.075
'13:01.356',0.645,0.095
'13:01.358',0.345,0.170
'13:01.361',0.060,0.215
'13:01.364',-0.140,0.240
'13:01.367',-0.255,0.225
'13:01.369',-0.260,0.195
'13:01.372',-0.235,0.155
'13:01.375',-0.175,0.120
'13:01.378',-0.145,0.120
'13:01.381',-0.150,0.115
'13:01.383',-0.180,0.095
'13:01.386',-0.220,0.100
'13:01.389',-0.230,0.095
'13:01.392',-0.240,0.115
'13:01.394',-0.250,0.150
'13:01.397',-0.240,0.125
'13:01.400',-0.250,0.120
'13:01.403',-0.260,0.120
'13:01.406',-0.270,0.115
'13:01.408',-0.260,0.125
'13:01.411',-0.250,0.130
'13:01.414',-0.240,0.120
'13:01.417',-0.250,0.100
'13:01.419',-0.275,0.075
'13:01.422',-0.280,0.075
'13:01.425',-0.275,0.085
'13:01.428',-0.255,0.085
'13:01.431',-0.245,0.075
'13:01.433',-0.245,0.075
'13:01.436',-0.265,0.075
'13:01.439',-0.280,0.085
'13:01.442',-0.270,0.100
'13:01.444',-0.270,0.110
'13:01.447',-0.270,0.100
'13:01.450',-0.255,0.090
'13:01.453',-0.275,0.075
'13:01.456',-0.260,0.085
'13:01.458',-0.255,0.105
'13:01.461',-0.240,0.115
'13:01.464',-0.235,0.120
'13:01.467',-0.245,0.110
'13:01.469',-0.260,0.090
'13:01.472',-0.255,0.085
'13:01.475',-0.250,0.090
'13:01.478',-0.240,0.115
'13:01.481',-0.230,0.110
'13:01.483',-0.230,0.090
'13:01.486',-0.235,0.090
'13:01.489',-0.250,0.085
'13:01.492',-0.230,0.115
'13:01.494',-0.225,0.115
'13:01.497',-0.200,0.125
'13:01.500',-0.225,0.105
'13:01.503',-0.225,0.100
'13:01.506',-0.235,0.110
'13:01.508',-0.215,0.130
'13:01.511',-0.200,0.130
'13:01.514',-0.185,0.125
'13:01.517',-0.185,0.100
'13:01.519',-0.195,0.060
'13:01.522',-0.205,0.040
'13:01.525',-0.185,0.045
'13:01.528',-0.175,0.065
'13:01.531',-0.160,0.060
'13:01.533',-0.170,0.040
'13:01.536',-0.165,0.015
'13:01.539',-0.180,0.005
'13:01.542',-0.165,0.010
'13:01.544',-0.150,0.030
'13:01.547',-0.130,0.010
'13:01.550',-0.130,-0.010
'13:01.553',-0.140,-0.045
'13:01.556',-0.140,-0.060
'13:01.558',-0.140,-0.070
'13:01.561',-0.120,-0.075
'13:01.564',-0.100,-0.070
'13:01.567',-0.105,-0.080
'13:01.569',-0.120,-0.095
'13:01.572',-0.125,-0.105
'13:01.575',-0.110,-0.090
'13:01.578',-0.115,-0.085
'13:01.581',-0.080,-0.095
'13:01.583',-0.100,-0.110
'13:01.586',-0.105,-0.115
'13:01.589',-0.095,-0.100
'13:01.592',-0.080,-0.090
'13:01.594',-0.055,-0.085
'13:01.597',-0.040,-0.090
'13:01.600',-0.035,-0.105
'13:01.603',-0.045,-0.100
'13:01.606',-0.055,-0.115
'13:01.608',-0.040,-0.085
'13:01.611',-0.030,-0.060
'13:01.614',-0.025,-0.075
'13:01.617',-0.030,-0.065
'13:01.619',-0.035,-0.065
'13:01.622',-0.040,-0.055
'13:01.625',-0.015,-0.020
'13:01.628',-0.010,-0.015
'13:01.631',-0.010,-0.005
'13:01.633',-0.025,-0.015
'13:01.636',-0.030,-0.020
'13:01.639',-0.040,-0.010
'13:01.642',-0.045,0.005
'13:01.644',-0.040,0.035
'13:01.647',-0.055,0.035
'13:01.650',-0.075,0.020
'13:01.653',-0.090,0.025
'13:01.656',-0.105,0.045
'13:01.658',-0.105,0.065
'13:01.661',-0.110,0.085
'13:01.664',-0.120,0.100
'13:01.667',-0.125,0.100
'13:01.669',-0.145,0.095
'13:01.672',-0.155,0.105
'13:01.675',-0.160,0.125
'13:01.678',-0.150,0.150
'13:01.681',-0.135,0.150
'13:01.683',-0.165,0.135
'13:01.686',-0.175,0.125
'13:01.689',-0.185,0.140
'13:01.692',-0.180,0.135
'13:01.694',-0.185,0.155
'13:01.697',-0.185,0.135
'13:01.700',-0.185,0.115
'13:01.703',-0.200,0.100
'13:01.706',-0.220,0.105
'13:01.708',-0.200,0.100
'13:01.711',-0.190,0.120
'13:01.714',-0.170,0.105
'13:01.717',-0.170,0.095
'13:01.719',-0.190,0.075
'13:01.722',-0.195,0.090
'13:01.725',-0.190,0.110
'13:01.728',-0.165,0.130
'13:01.731',-0.160,0.130
'13:01.733',-0.150,0.125
'13:01.736',-0.160,0.115
'13:01.739',-0.175,0.105
'13:01.742',-0.165,0.110
'13:01.744',-0.150,0.115
'13:01.747',-0.145,0.120
'13:01.750',-0.160,0.110
'13:01.753',-0.185,0.160
'13:01.756',-0.185,0.190
'13:01.758',-0.170,0.210
'13:01.761',-0.140,0.185
'13:01.764',-0.130,0.120
'13:01.767',-0.125,0.060
'13:01.769',-0.140,0.040
'13:01.772',-0.140,0.030
'13:01.775',-0.145,0.045
'13:01.778',-0.135,0.060
'13:01.781',-0.130,0.065
'13:01.783',-0.135,0.070
'13:01.786',-0.135,0.085
'13:01.789',-0.140,0.150
'13:01.792',-0.130,0.210
'13:01.794',-0.125,0.250
'13:01.797',-0.110,0.220
'13:01.800',-0.130,0.135
'13:01.803',-0.150,0.045
'13:01.806',-0.160,-0.015
'13:01.808',-0.155,-0.025
'13:01.811',-0.135,0.005
'13:01.814',-0.140,0.010
'13:01.817',-0.140,0.010
'13:01.819',-0.170,0.020
'13:01.822',-0.185,0.035
'13:01.825',-0.185,0.045
'13:01.828',-0.170,0.065
'13:01.831',-0.165,0.065
'13:01.833',-0.160,0.055
'13:01.836',-0.170,0.040
'13:01.839',-0.180,0.055
'13:01.842',-0.165,0.065
'13:01.844',-0.160,0.090
'13:01.847',-0.140,0.080
'13:01.850',-0.150,0.065
'13:01.853',-0.170,0.070
'13:01.856',-0.175,0.070
'13:01.858',-0.170,0.090
'13:01.861',-0.150,0.105
'13:01.864',-0.130,0.100
'13:01.867',-0.145,0.095
'13:01.869',-0.170,0.080
'13:01.872',-0.165,0.090
'13:01.875',-0.160,0.090
'13:01.878',-0.150,0.110
'13:01.881',-0.150,0.105
'13:01.883',-0.160,0.105
'13:01.886',-0.165,0.095
'13:01.889',-0.175,0.100
'13:01.892',-0.175,0.120
'13:01.894',-0.155,0.125
'13:01.897',-0.145,0.120
'13:01.900',-0.160,0.110
'13:01.903',-0.160,0.095
'13:01.906',-0.190,0.095
'13:01.908',-0.165,0.120
'13:01.911',-0.150,0.130
'13:01.914',-0.150,0.130
'13:01.917',-0.160,0.125
'13:01.919',-0.160,0.110
'13:01.922',-0.170,0.125
'13:01.925',-0.155,0.135
'13:01.928',-0.160,0.150
'13:01.931',-0.150,0.130
'13:01.933',-0.155,0.130
'13:01.936',-0.190,0.120
'13:01.939',-0.190,0.120
'13:01.942',-0.190,0.135
'13:01.944',-0.160,0.155
'13:01.947',-0.155,0.150
'13:01.950',-0.165,0.140
'13:01.953',-0.175,0.130
'13:01.956',-0.175,0.140
'13:01.958',-0.175,0.155
'13:01.961',-0.170,0.180
'13:01.964',-0.155,0.170
'13:01.967',-0.160,0.160
'13:01.969',-0.185,0.135
'13:01.972',-0.190,0.115
'13:01.975',-0.170,0.105
'13:01.978',-0.160,0.115
'13:01.981',-0.145,0.110
'13:01.983',-0.145,0.095
'13:01.986',-0.155,0.090
'13:01.989',-0.150,0.095
'13:01.992',-0.145,0.100
'13:01.994',-0.130,0.125
'13:01.997',-0.115,0.110
'13:02.000',-0.125,0.090
'13:02.003',-0.115,0.065
'13:02.006',-0.115,0.055
'13:02.008',-0.090,0.055
'13:02.011',-0.020,0.065
'13:02.014',0.025,0.050
'13:02.017',0.080,0.020
'13:02.019',0.165,0.010
'13:02.022',0.265,0.000
'13:02.025',0.415,-0.025
'13:02.028',0.585,-0.055
'13:02.031',0.790,-0.105
'13:02.033',0.965,-0.150
'13:02.036',1.140,-0.160
'13:02.039',1.290,-0.120
'13:02.042',1.380,-0.015
'13:02.044',1.365,0.080
'13:02.047',1.180,0.105
'13:02.050',0.910,0.115
'13:02.053',0.590,0.125
'13:02.056',0.275,0.190
'13:02.058',-0.005,0.260
'13:02.061',-0.210,0.300
'13:02.064',-0.300,0.325
'13:02.067',-0.305,0.305
'13:02.069',-0.245,0.250
'13:02.072',-0.205,0.195
'13:02.075',-0.160,0.175
'13:02.078',-0.145,0.155
'13:02.081',-0.140,0.125
'13:02.083',-0.150,0.095
'13:02.086',-0.165,0.075
'13:02.089',-0.185,0.065
'13:02.092',-0.190,0.090
'13:02.094',-0.175,0.100
'13:02.097',-0.185,0.120
'13:02.100',-0.200,0.120
'13:02.103',-0.225,0.115
'13:02.106',-0.255,0.105
'13:02.108',-0.250,0.125
'13:02.111',-0.230,0.155
'13:02.114',-0.220,0.170
'13:02.117',-0.235,0.160
'13:02.119',-0.255,0.155
'13:02.122',-0.255,0.160
'13:02.125',-0.260,0.165
'13:02.128',-0.245,0.175
'13:02.131',-0.230,0.165
'13:02.133',-0.245,0.155
'13:02.136',-0.250,0.130
'13:02.139',-0.260,0.120
'13:02.142',-0.245,0.115
'13:02.144',-0.235,0.125
'13:02.147',-0.225,0.135
'13:02.150',-0.215,0.110
'13:02.153',-0.230,0.115
'13:02.156',-0.250,0.110
'13:02.158',-0.235,0.125
'13:02.161',-0.225,0.140
'13:02.164',-0.210,0.125
'13:02.167',-0.215,0.115
'13:02.169',-0.230,0.100
'13:02.172',-0.240,0.105
'13:02.175',-0.235,0.110
'13:02.178',-0.215,0.120
'13:02.181',-0.220,0.120
'13:02.183',-0.225,0.105
'13:02.186',-0.240,0.080
'13:02.189',-0.255,0.075
'13:02.192',-0.235,0.100
'13:02.194',-0.230,0.120
'13:02.197',-0.210,0.120
'13:02.200',-0.205,0.090
'13:02.203',-0.220,0.075
'13:02.206',-0.230,0.055
'13:02.208',-0.225,0.070
'13:02.211',-0.200,0.080
'13:02.214',-0.195,0.070
'13:02.217',-0.200,0.055
'13:02.219',-0.210,0.045
'13:02.222',-0.195,0.045
'13:02.225',-0.170,0.055
'13:02.228',-0.135,0.055
'13:02.231',-0.125,0.045
'13:02.233',-0.125,0.015
'13:02.236',-0.140,0.000
'13:02.239',-0.135,0.005
'13:02.242',-0.130,-0.010
'13:02.244',-0.115,-0.010
'13:02.247',-0.100,-0.020
'13:02.250',-0.110,-0.040
'13:02.253',-0.120,-0.055
'13:02.256',-0.115,-0.050
'13:02.258',-0.110,-0.045
'13:02.261',-0.100,-0.035
'13:02.264',-0.100,-0.045
'13:02.267',-0.095,-0.050
'13:02.269',-0.125,-0.070
'13:02.272',-0.115,-0.090
'13:02.275',-0.090,-0.080
'13:02.278',-0.075,-0.065
'13:02.281',-0.060,-0.090
'13:02.283',-0.055,-0.105
'13:02.286',-0.070,-0.115
'13:02.289',-0.070,-0.130
'13:02.292',-0.070,-0.110
'13:02.294',-0.050,-0.095
'13:02.297',-0.025,-0.090
'13:02.300',-0.035,-0.115
'13:02.303',-0.035,-0.115
'13:02.306',-0.050,-0.120
'13:02.308',-0.035,-0.095
'13:02.311',-0.025,-0.075
'13:02.314',-0.015,-0.080
'13:02.317',-0.025,-0.080
'13:02.319',-0.045,-0.085
'13:02.322',-0.060,-0.065
'13:02.325',-0.050,-0.040
'13:02.328',-0.035,-0.015
'13:02.331',-0.035,-0.015
'13:02.333',-0.055,0.000
'13:02.336',-0.065,0.005
'13:02.339',-0.080,0.010
'13:02.342',-0.075,0.030
'13:02.344',-0.065,0.060
'13:02.347',-0.055,0.070
'13:02.350',-0.080,0.070
'13:02.353',-0.100,0.080
'13:02.356',-0.125,0.090
'13:02.358',-0.130,0.115
'13:02.361',-0.125,0.140
'13:02.364',-0.110,0.130
'13:02.367',-0.120,0.090
'13:02.369',-0.135,0.095
'13:02.372',-0.150,0.115
'13:02.375',-0.145,0.155
'13:02.378',-0.135,0.155
'13:02.381',-0.135,0.140
'13:02.383',-0.155,0.120
'13:02.386',-0.175,0.110
'13:02.389',-0.185,0.120
'13:02.392',-0.180,0.145
'13:02.394',-0.165,0.170
'13:02.397',-0.165,0.160
'13:02.400',-0.170,0.145
'13:02.403',-0.190,0.140
'13:02.406',-0.190,0.140
'13:02.408',-0.185,0.150
'13:02.411',-0.180,0.155
'13:02.414',-0.185,0.135
'13:02.417',-0.190,0.135
'13:02.419',-0.205,0.130
'13:02.422',-0.195,0.125
'13:02.425',-0.205,0.125
'13:02.428',-0.170,0.135
'13:02.431',-0.160,0.130
'13:02.433',-0.165,0.120
'13:02.436',-0.180,0.100
'13:02.439',-0.190,0.105
'13:02.442',-0.185,0.115
'13:02.444',-0.175,0.125
'13:02.447',-0.165,0.115
'13:02.450',-0.145,0.085
'13:02.453',-0.155,0.085
'13:02.456',-0.155,0.075
'13:02.458',-0.150,0.080
'13:02.461',-0.135,0.100
'13:02.464',-0.120,0.090
'13:02.467',-0.135,0.080
'13:02.469',-0.155,0.080
'13:02.472',-0.160,0.085
'13:02.475',-0.140,0.095
'13:02.478',-0.130,0.110
'13:02.481',-0.130,0.100
'13:02.483',-0.125,0.090
'13:02.486',-0.135,0.090
'13:02.489',-0.135,0.095
'13:02.492',-0.130,0.130
'13:02.494',-0.115,0.140
'13:02.497',-0.125,0.130
'13:02.500',-0.125,0.115
'13:02.503',-0.145,0.105
'13:02.506',-0.145,0.110
'13:02.508',-0.145,0.135
'13:02.511',-0.110,0.165
'13:02.514',-0.115,0.150
'13:02.517',-0.120,0.120
'13:02.519',-0.145,0.090
'13:02.522',-0.155,0.095
'13:02.525',-0.135,0.110
'13:02.528',-0.135,0.125
'13:02.531',-0.125,0.150
'13:02.533',-0.135,0.125
'13:02.536',-0.150,0.125
'13:02.539',-0.155,0.125
'13:02.542',-0.145,0.140
'13:02.544',-0.145,0.155
'13:02.547',-0.145,0.150
'13:02.550',-0.145,0.135
'13:02.553',-0.150,0.120
'13:02.556',-0.165,0.125
'13:02.558',-0.165,0.125
'13:02.561',-0.150,0.120
'13:02.564',-0.130,0.115
'13:02.567',-0.145,0.095
'13:02.569',-0.150,0.090
'13:02.572',-0.160,0.090
'13:02.575',-0.160,0.100
'13:02.578',-0.150,0.110
'13:02.581',-0.140,0.105
'13:02.583',-0.150,0.105
'13:02.586',-0.165,0.095
'13:02.589',-0.175,0.095
'13:02.592',-0.165,0.115
'13:02.594',-0.145,0.130
'13:02.597',-0.135,0.115
'13:02.600',-0.130,0.100
'13:02.603',-0.145,0.085
'13:02.606',-0.140,0.100
'13:02.608',-0.125,0.085
'13:02.611',-0.120,0.120
'13:02.614',-0.105,0.105
'13:02.617',-0.120,0.110
'13:02.619',-0.135,0.090
'13:02.622',-0.140,0.095
'13:02.625',-0.125,0.115
'13:02.628',-0.100,0.120
'13:02.631',-0.105,0.120
'13:02.633',-0.100,0.100
'13:02.636',-0.105,0.100
'13:02.639',-0.125,0.110
'13:02.642',-0.110,0.115
'13:02.644',-0.105,0.125
'13:02.647',-0.090,0.125
'13:02.650',-0.085,0.110
'13:02.653',-0.100,0.075
'13:02.656',-0.075,0.075
'13:02.658',-0.030,0.085
'13:02.661',0.010,0.090
'13:02.664',0.075,0.070
'13:02.667',0.135,0.030
'13:02.669',0.200,0.025
'13:02.672',0.295,0.025
'13:02.675',0.425,0.010
'13:02.678',0.570,-0.020
'13:02.681',0.750,-0.055
'13:02.683',0.905,-0.105
'13:02.686',1.055,-0.115
'13:02.689',1.230,-0.080
'13:02.692',1.355,0.000
'13:02.694',1.420,0.110
'13:02.697',1.360,0.160
'13:02.700',1.155,0.155
'13:02.703',0.885,0.165
'13:02.706',0.585,0.195
'13:02.708',0.300,0.255
'13:02.711',0.055,0.295
'13:02.714',-0.145,0.315
'13:02.717',-0.275,0.290
'13:02.719',-0.300,0.265
'13:02.722',-0.260,0.225
'13:02.725',-0.215,0.190
'13:02.728',-0.175,0.165
'13:02.731',-0.150,0.155
'13:02.733',-0.165,0.130
'13:02.736',-0.190,0.115
'13:02.739',-0.225,0.125
'13:02.742',-0.220,0.140
'13:02.744',-0.215,0.160
'13:02.747',-0.220,0.140
'13:02.750',-0.225,0.125
'13:02.753',-0.255,0.100
'13:02.756',-0.255,0.085
'13:02.758',-0.260,0.095
'13:02.761',-0.240,0.115
'13:02.764',-0.220,0.105
'13:02.767',-0.225,0.100
'13:02.769',-0.235,0.090
'13:02.772',-0.255,0.095
'13:02.775',-0.240,0.105
'13:02.778',-0.225,0.120
'13:02.781',-0.230,0.115
'13:02.783',-0.235,0.105
'13:02.786',-0.240,0.115
'13:02.789',-0.260,0.100
'13:02.792',-0.255,0.110
'13:02.794',-0.255,0.130
'13:02.797',-0.240,0.125
'13:02.800',-0.240,0.115
'13:02.803',-0.255,0.110
'13:02.806',-0.250,0.120
'13:02.808',-0.250,0.120
'13:02.811',-0.240,0.135
'13:02.814',-0.205,0.140
'13:02.817',-0.225,0.130
'13:02.819',-0.250,0.120
'13:02.822',-0.260,0.125
'13:02.825',-0.250,0.110
'13:02.828',-0.240,0.115
'13:02.831',-0.220,0.100
'13:02.833',-0.250,0.090
'13:02.836',-0.250,0.095
'13:02.839',-0.245,0.095
'13:02.842',-0.250,0.115
'13:02.844',-0.240,0.125
'13:02.847',-0.235,0.120
'13:02.850',-0.255,0.095
'13:02.853',-0.265,0.085
'13:02.856',-0.275,0.090
'13:02.858',-0.265,0.110
'13:02.861',-0.250,0.115
'13:02.864',-0.235,0.105
'13:02.867',-0.245,0.085
'13:02.869',-0.260,0.085
'13:02.872',-0.255,0.075
'13:02.875',-0.240,0.070
'13:02.878',-0.235,0.075
'13:02.881',-0.225,0.065
'13:02.883',-0.235,0.050
'13:02.886',-0.250,0.025
'13:02.889',-0.245,0.025
'13:02.892',-0.225,0.030
'13:02.894',-0.200,0.025
'13:02.897',-0.185,0.020
'13:02.900',-0.185,-0.005
'13:02.903',-0.200,-0.030
'13:02.906',-0.190,-0.035
'13:02.908',-0.190,-0.015
'13:02.911',-0.170,-0.015
'13:02.914',-0.155,-0.030
'13:02.917',-0.160,-0.045
'13:02.919',-0.165,-0.070
'13:02.922',-0.150,-0.060
'13:02.925',-0.145,-0.060
'13:02.928',-0.105,-0.065
'13:02.931',-0.090,-0.070
'13:02.933',-0.100,-0.095
'13:02.936',-0.110,-0.105
'13:02.939',-0.110,-0.095
'13:02.942',-0.100,-0.085
'13:02.944',-0.070,-0.075
'13:02.947',-0.065,-0.075
'13:02.950',-0.065,-0.085
'13:02.953',-0.080,-0.100
'13:02.956',-0.085,-0.090
'13:02.958',-0.080,-0.085
'13:02.961',-0.065,-0.085
'13:02.964',-0.060,-0.095
'13:02.967',-0.065,-0.095
'13:02.969',-0.065,-0.110
'13:02.972',-0.070,-0.105
'13:02.975',-0.075,-0.085
'13:02.978',-0.050,-0.085
'13:02.981',-0.060,-0.090
'13:02.983',-0.060,-0.090
'13:02.986',-0.070,-0.110
'13:02.989',-0.080,-0.080
'13:02.992',-0.075,-0.050
'13:02.994',-0.050,-0.030
'13:02.997',-0.055,-0.020
'13:03.000',-0.055,-0.020
'13:03.003',-0.085,-0.030
'13:03.006',-0.105,-0.005
'13:03.008',-0.090,0.020
'13:03.011',-0.080,0.035
'13:03.014',-0.095,0.050
'13:03.017',-0.105,0.045
'13:03.019',-0.120,0.050
'13:03.022',-0.135,0.070
'13:03.025',-0.135,0.095
'13:03.028',-0.145,0.100
'13:03.031',-0.145,0.100
'13:03.033',-0.165,0.100
'13:03.036',-0.175,0.075
'13:03.039',-0.195,0.065
'13:03.042',-0.185,0.090
'13:03.044',-0.180,0.100
'13:03.047',-0.165,0.110
'13:03.050',-0.175,0.100
'13:03.053',-0.180,0.090
'13:03.056',-0.195,0.095
'13:03.058',-0.190,0.115
'13:03.061',-0.180,0.140
'13:03.064',-0.170,0.130
'13:03.067',-0.185,0.125
'13:03.069',-0.200,0.110
'13:03.072',-0.200,0.125
'13:03.075',-0.175,0.120
'13:03.078',-0.180,0.135
'13:03.081',-0.170,0.125
'13:03.083',-0.175,0.125
'13:03.086',-0.190,0.105
'13:03.089',-0.200,0.125
'13:03.092',-0.195,0.135
'13:03.094',-0.175,0.145
'13:03.097',-0.170,0.150
'13:03.100',-0.175,0.120
'13:03.103',-0.185,0.130
'13:03.106',-0.200,0.135
'13:03.108',-0.190,0.145
'13:03.111',-0.180,0.160
'13:03.114',-0.170,0.150
'13:03.117',-0.185,0.130
'13:03.119',-0.215,0.120
'13:03.122',-0.220,0.125
'13:03.125',-0.210,0.130
'13:03.128',-0.185,0.135
'13:03.131',-0.185,0.135
'13:03.133',-0.180,0.120
'13:03.136',-0.190,0.105
'13:03.139',-0.195,0.135
'13:03.142',-0.185,0.145
'13:03.144',-0.170,0.155
'13:03.147',-0.160,0.160
'13:03.150',-0.175,0.140
'13:03.153',-0.190,0.135
'13:03.156',-0.195,0.135
'13:03.158',-0.185,0.140
'13:03.161',-0.175,0.155
'13:03.164',-0.155,0.150
'13:03.167',-0.160,0.135
'13:03.169',-0.170,0.130
'13:03.172',-0.175,0.125
'13:03.175',-0.160,0.140
'13:03.178',-0.145,0.140
'13:03.181',-0.155,0.130
'13:03.183',-0.155,0.110
'13:03.186',-0.170,0.080
'13:03.189',-0.165,0.095
'13:03.192',-0.155,0.105
'13:03.194',-0.145,0.120
'13:03.197',-0.150,0.110
'13:03.200',-0.150,0.095
'13:03.203',-0.175,0.065
'13:03.206',-0.185,0.070
'13:03.208',-0.180,0.085
'13:03.211',-0.145,0.095
'13:03.214',-0.145,0.085
'13:03.217',-0.160,0.080
'13:03.219',-0.170,0.065
'13:03.222',-0.165,0.075
'13:03.225',-0.165,0.100
'13:03.228',-0.150,0.105
'13:03.231',-0.145,0.095
'13:03.233',-0.155,0.065
'13:03.236',-0.175,0.075
'13:03.239',-0.190,0.075
'13:03.242',-0.190,0.095
'13:03.244',-0.180,0.105
'13:03.247',-0.175,0.105
'13:03.250',-0.180,0.090
'13:03.253',-0.190,0.085
'13:03.256',-0.185,0.090
'13:03.258',-0.185,0.115
'13:03.261',-0.175,0.120
'13:03.264',-0.165,0.130
'13:03.267',-0.180,0.125
'13:03.269',-0.205,0.115
'13:03.272',-0.210,0.120
'13:03.275',-0.205,0.135
'13:03.278',-0.200,0.150
'13:03.281',-0.190,0.155
'13:03.283',-0.190,0.145
'13:03.286',-0.200,0.130
'13:03.289',-0.200,0.130
'13:03.292',-0.185,0.130
'13:03.294',-0.180,0.125
'13:03.297',-0.170,0.125
'13:03.300',-0.175,0.125
'13:03.303',-0.200,0.135
'13:03.306',-0.205,0.155
'13:03.308',-0.200,0.160
'13:03.311',-0.180,0.165
'13:03.314',-0.170,0.165
'13:03.317',-0.190,0.155
'13:03.319',-0.205,0.140
'13:03.322',-0.215,0.150
'13:03.325',-0.205,0.160
'13:03.328',-0.195,0.175
'13:03.331',-0.175,0.165
'13:03.333',-0.165,0.145
'13:03.336',-0.180,0.115
'13:03.339',-0.185,0.110
'13:03.342',-0.175,0.120
'13:03.344',-0.165,0.115
'13:03.347',-0.170,0.115
'13:03.350',-0.170,0.095
'13:03.353',-0.190,0.095
'13:03.356',-0.190,0.110
'13:03.358',-0.185,0.120
'13:03.361',-0.165,0.135
'13:03.364',-0.150,0.125
'13:03.367',-0.155,0.110
'13:03.369',-0.175,0.075
'13:03.372',-0.175,0.085
'13:03.375',-0.165,0.085
'13:03.378',-0.150,0.105
'13:03.381',-0.165,0.085
'13:03.383',-0.165,0.090
'13:03.386',-0.185,0.075
'13:03.389',-0.195,0.080
'13:03.392',-0.180,0.095
'13:03.394',-0.180,0.105
'13:03.397',-0.175,0.105
'13:03.400',-0.180,0.085
'13:03.403',-0.185,0.075
'13:03.406',-0.200,0.100
'13:03.408',-0.190,0.110
'13:03.411',-0.185,0.105
'13:03.414',-0.165,0.105
'13:03.417',-0.175,0.105
'13:03.419',-0.185,0.095
'13:03.422',-0.195,0.105
'13:03.425',-0.195,0.115
'13:03.428',-0.170,0.125
'13:03.431',-0.175,0.120
'13:03.433',-0.170,0.130
'13:03.436',-0.185,0.120
'13:03.439',-0.190,0.135
'13:03.442',-0.170,0.125
'13:03.444',-0.145,0.135
'13:03.447',-0.165,0.125
'13:03.450',-0.175,0.115
'13:03.453',-0.180,0.110
'13:03.456',-0.190,0.140
'13:03.458',-0.175,0.165
'13:03.461',-0.170,0.170
'13:03.464',-0.170,0.170
'13:03.467',-0.175,0.125
'13:03.469',-0.190,0.120
'13:03.472',-0.185,0.120
'13:03.475',-0.170,0.125
'13:03.478',-0.145,0.125
'13:03.481',-0.135,0.105
'13:03.483',-0.140,0.085
'13:03.486',-0.150,0.070
'13:03.489',-0.160,0.070
'13:03.492',-0.160,0.080
'13:03.494',-0.135,0.095
'13:03.497',-0.140,0.085
'13:03.500',-0.135,0.085
'13:03.503',-0.145,0.080
'13:03.506',-0.155,0.085
'13:03.508',-0.140,0.095
'13:03.511',-0.120,0.100
'13:03.514',-0.120,0.085
'13:03.517',-0.120,0.060
'13:03.519',-0.145,0.050
'13:03.522',-0.140,0.045
'13:03.525',-0.130,0.075
'13:03.528',-0.135,0.090
'13:03.531',-0.120,0.070
'13:03.533',-0.120,0.085
'13:03.536',-0.135,0.070
'13:03.539',-0.150,0.080
'13:03.542',-0.145,0.090
'13:03.544',-0.145,0.105
'13:03.547',-0.145,0.115
'13:03.550',-0.135,0.100
'13:03.553',-0.175,0.095
'13:03.556',-0.170,0.090
'13:03.558',-0.150,0.130
'13:03.561',-0.125,0.125
'13:03.564',-0.125,0.125
'13:03.567',-0.125,0.100
'13:03.569',-0.135,0.080
'13:03.572',-0.140,0.085
'13:03.575',-0.140,0.105
'13:03.578',-0.130,0.115
'13:03.581',-0.125,0.120
'13:03.583',-0.125,0.110
'13:03.586',-0.125,0.095
'13:03.589',-0.130,0.085
'13:03.592',-0.130,0.095
'13:03.594',-0.115,0.095
'13:03.597',-0.105,0.095
'13:03.600',-0.125,0.095
'13:03.603',-0.150,0.090
'13:03.606',-0.150,0.110
'13:03.608',-0.160,0.130
'13:03.611',-0.135,0.150
'13:03.614',-0.130,0.150
'13:03.617',-0.140,0.140
'13:03.619',-0.140,0.115
'13:03.622',-0.125,0.110
'13:03.625',-0.120,0.120
'13:03.628',-0.105,0.120
'13:03.631',-0.100,0.100
'13:03.633',-0.110,0.070
'13:03.636',-0.120,0.055
'13:03.639',-0.120,0.060
'13:03.642',-0.110,0.060
'13:03.644',-0.090,0.060
'13:03.647',-0.065,0.055
'13:03.650',-0.050,0.025
'13:03.653',-0.015,0.005
'13:03.656',0.035,0.005
'13:03.658',0.115,0.005
'13:03.661',0.215,0.010
'13:03.664',0.335,-0.010
'13:03.667',0.450,-0.050
'13:03.669',0.590,-0.105
'13:03.672',0.775,-0.160
'13:03.675',0.940,-0.180
'13:03.678',1.120,-0.180
'13:03.681',1.295,-0.170
'13:03.683',1.405,-0.120
'13:03.686',1.405,-0.030
'13:03.689',1.300,0.035
'13:03.692',1.075,0.085
'13:03.694',0.800,0.120
'13:03.697',0.530,0.145
'13:03.700',0.270,0.175
'13:03.703',0.030,0.180
'13:03.706',-0.130,0.195
'13:03.708',-0.190,0.195
'13:03.711',-0.170,0.195
'13:03.714',-0.115,0.150
'13:03.717',-0.100,0.095
'13:03.719',-0.135,0.065
'13:03.722',-0.150,0.060
'13:03.725',-0.165,0.075
'13:03.728',-0.155,0.085
'13:03.731',-0.145,0.080
'13:03.733',-0.170,0.085
'13:03.736',-0.195,0.085
'13:03.739',-0.215,0.090
'13:03.742',-0.225,0.085
'13:03.744',-0.220,0.090
'13:03.747',-0.225,0.095
'13:03.750',-0.230,0.100
'13:03.753',-0.235,0.115
'13:03.756',-0.250,0.130
'13:03.758',-0.230,0.155
'13:03.761',-0.205,0.155
'13:03.764',-0.205,0.150
'13:03.767',-0.220,0.115
'13:03.769',-0.245,0.095
'13:03.772',-0.240,0.085
'13:03.775',-0.235,0.095
'13:03.778',-0.230,0.110
'13:03.781',-0.225,0.095
'13:03.783',-0.220,0.085
'13:03.786',-0.240,0.080
'13:03.789',-0.230,0.085
'13:03.792',-0.240,0.105
'13:03.794',-0.235,0.105
'13:03.797',-0.245,0.110
'13:03.800',-0.245,0.100
'13:03.803',-0.260,0.095
'13:03.806',-0.250,0.085
'13:03.808',-0.230,0.085
'13:03.811',-0.205,0.100
'13:03.814',-0.210,0.090
'13:03.817',-0.210,0.085
'13:03.819',-0.215,0.060
'13:03.822',-0.220,0.080
'13:03.825',-0.205,0.095
'13:03.828',-0.205,0.120
'13:03.831',-0.200,0.100
'13:03.833',-0.205,0.085
'13:03.836',-0.215,0.085
'13:03.839',-0.220,0.090
'13:03.842',-0.205,0.100
'13:03.844',-0.180,0.090
'13:03.847',-0.170,0.090
'13:03.850',-0.175,0.075
'13:03.853',-0.175,0.065
'13:03.856',-0.175,0.065
'13:03.858',-0.175,0.085
'13:03.861',-0.160,0.080
'13:03.864',-0.170,0.080
'13:03.867',-0.165,0.065
'13:03.869',-0.170,0.055
'13:03.872',-0.165,0.045
'13:03.875',-0.150,0.070
'13:03.878',-0.130,0.090
'13:03.881',-0.125,0.075
'13:03.883',-0.135,0.045
'13:03.886',-0.135,0.030
'13:03.889',-0.130,0.020
'13:03.892',-0.110,0.030
'13:03.894',-0.090,0.035
'13:03.897',-0.090,0.015
'13:03.900',-0.090,-0.005
'13:03.903',-0.095,-0.025
'13:03.906',-0.095,-0.020
'13:03.908',-0.070,-0.030
'13:03.911',-0.065,-0.030
'13:03.914',-0.065,-0.045
'13:03.917',-0.065,-0.060
'13:03.919',-0.080,-0.080
'13:03.922',-0.070,-0.080
'13:03.925',-0.050,-0.065
'13:03.928',-0.030,-0.055
'13:03.931',-0.010,-0.060
'13:03.933',-0.005,-0.080
'13:03.936',-0.030,-0.090
'13:03.939',-0.035,-0.090
'13:03.942',-0.020,-0.065
'13:03.944',0.005,-0.060
'13:03.947',0.010,-0.075
'13:03.950',0.005,-0.080
'13:03.953',-0.010,-0.090
'13:03.956',-0.005,-0.075
'13:03.958',0.015,-0.050
'13:03.961',0.040,-0.040
'13:03.964',0.040,-0.035
'13:03.967',0.035,-0.045
'13:03.969',0.015,-0.065
'13:03.972',0.010,-0.060
'13:03.975',0.030,-0.040
'13:03.978',0.025,-0.025
'13:03.981',0.040,-0.025
'13:03.983',0.025,-0.030
'13:03.986',0.005,-0.025
'13:03.989',-0.010,-0.015
'13:03.992',0.000,0.010
'13:03.994',0.025,0.030
'13:03.997',0.025,0.025
'13:04.000',0.000,0.020
'13:04.003',-0.020,0.015
'13:04.006',-0.035,0.030
'13:04.008',-0.045,0.070
'13:04.011',-0.035,0.085
'13:04.014',-0.030,0.085
'13:04.017',-0.065,0.090
'13:04.019',-0.080,0.075
'13:04.022',-0.100,0.095
'13:04.025',-0.090,0.095
'13:04.028',-0.095,0.090
'13:04.031',-0.105,0.090
'13:04.033',-0.115,0.065
'13:04.036',-0.145,0.065
'13:04.039',-0.150,0.075
'13:04.042',-0.135,0.080
'13:04.044',-0.120,0.100
'13:04.047',-0.110,0.090
'13:04.050',-0.125,0.085
'13:04.053',-0.150,0.080
'13:04.056',-0.150,0.085
'13:04.058',-0.145,0.095
'13:04.061',-0.130,0.110
'13:04.064',-0.135,0.105
'13:04.067',-0.140,0.095
'13:04.069',-0.155,0.080
'13:04.072',-0.160,0.080
'13:04.075',-0.140,0.085
'13:04.078',-0.125,0.090
'13:04.081',-0.115,0.085
'13:04.083',-0.130,0.075
'13:04.086',-0.145,0.060
'13:04.089',-0.145,0.060
'13:04.092',-0.140,0.070
'13:04.094',-0.125,0.100
'13:04.097',-0.110,0.085
'13:04.100',-0.115,0.070
'13:04.103',-0.130,0.060
'13:04.106',-0.125,0.080
'13:04.108',-0.120,0.085
'13:04.111',-0.110,0.095
'13:04.114',-0.090,0.095
'13:04.117',-0.110,0.075
'13:04.119',-0.125,0.075
'13:04.122',-0.125,0.090
'13:04.125',-0.130,0.100
'13:04.128',-0.110,0.125
'13:04.131',-0.110,0.130
'13:04.133',-0.115,0.125
'13:04.136',-0.120,0.105
'13:04.139',-0.120,0.125
'13:04.142',-0.115,0.130
'13:04.144',-0.100,0.145
'13:04.147',-0.115,0.135
'13:04.150',-0.120,0.130
'13:04.153',-0.145,0.105
'13:04.156',-0.150,0.120
'13:04.158',-0.140,0.125
'13:04.161',-0.110,0.135
'13:04.164',-0.125,0.120
'13:04.167',-0.130,0.095
'13:04.169',-0.145,0.065
'13:04.172',-0.155,0.065
'13:04.175',-0.145,0.065
'13:04.178',-0.130,0.055
'13:04.181',-0.140,0.055
'13:04.183',-0.155,0.030
'13:04.186',-0.160,0.020
'13:04.189',-0.170,0.025
'13:04.192',-0.150,0.045
'13:04.194',-0.125,0.060
'13:04.197',-0.135,0.050
'13:04.200',-0.155,0.050
'13:04.203',-0.150,0.040
'13:04.206',-0.165,0.060
'13:04.208',-0.150,0.070
'13:04.211',-0.135,0.075
'13:04.214',-0.125,0.070
'13:04.217',-0.135,0.040
'13:04.219',-0.160,0.035
'13:04.222',-0.160,0.035
'13:04.225',-0.140,0.055
'13:04.228',-0.130,0.075
'13:04.231',-0.125,0.080
'13:04.233',-0.130,0.065
'13:04.236',-0.160,0.065
'13:04.239',-0.165,0.060
'13:04.242',-0.150,0.080
'13:04.244',-0.140,0.090
'13:04.247',-0.150,0.085
'13:04.250',-0.140,0.065
'13:04.253',-0.140,0.075
'13:04.256',-0.160,0.090
'13:04.258',-0.150,0.100
'13:04.261',-0.145,0.095
'13:04.264',-0.135,0.075
'13:04.267',-0.150,0.060
'13:04.269',-0.175,0.055
'13:04.272',-0.165,0.080
'13:04.275',-0.165,0.095
'13:04.278',-0.150,0.100
'13:04.281',-0.130,0.120
'13:04.283',-0.150,0.105
'13:04.286',-0.150,0.095
'13:04.289',-0.160,0.110
'13:04.292',-0.145,0.140
'13:04.294',-0.120,0.155
'13:04.297',-0.125,0.140
'13:04.300',-0.125,0.130
'13:04.303',-0.145,0.130
'13:04.306',-0.150,0.110
'13:04.308',-0.140,0.120
'13:04.311',-0.130,0.095
'13:04.314',-0.140,0.080
'13:04.317',-0.145,0.050
'13:04.319',-0.165,0.045
'13:04.322',-0.170,0.045
'13:04.325',-0.160,0.060
'13:04.328',-0.145,0.075
'13:04.331',-0.130,0.075
'13:04.333',-0.140,0.065
'13:04.336',-0.145,0.050
'13:04.339',-0.145,0.060
'13:04.342',-0.145,0.065
'13:04.344',-0.140,0.070
'13:04.347',-0.140,0.060
'13:04.350',-0.135,0.035
'13:04.353',-0.155,0.020
'13:04.356',-0.155,0.035
'13:04.358',-0.130,0.035
'13:04.361',-0.115,0.055
'13:04.364',-0.130,0.055
'13:04.367',-0.125,0.035
'13:04.369',-0.135,0.025
'13:04.372',-0.145,0.045
'13:04.375',-0.140,0.050
'13:04.378',-0.140,0.070
'13:04.381',-0.135,0.060
'13:04.383',-0.140,0.055
'13:04.386',-0.145,0.040
'13:04.389',-0.135,0.065
'13:04.392',-0.125,0.070
'13:04.394',-0.110,0.080
'13:04.397',-0.115,0.065
'13:04.400',-0.115,0.075
'13:04.403',-0.130,0.060
'13:04.406',-0.135,0.055
'13:04.408',-0.100,0.050
'13:04.411',-0.075,0.045
'13:04.414',-0.020,0.035
'13:04.417',0.040,0.005
'13:04.419',0.085,-0.015
'13:04.422',0.170,-0.010
'13:04.425',0.300,-0.020
'13:04.428',0.460,-0.050
'13:04.431',0.620,-0.105
'13:04.433',0.780,-0.165
'13:04.436',0.930,-0.190
'13:04.439',1.090,-0.185
'13:04.442',1.230,-0.115
'13:04.444',1.300,0.005
'13:04.447',1.250,0.115
'13:04.450',1.085,0.150
'13:04.453',0.840,0.155
'13:04.456',0.575,0.175
'13:04.458',0.320,0.235
'13:04.461',0.070,0.310
'13:04.464',-0.145,0.335
'13:04.467',-0.295,0.350
'13:04.469',-0.330,0.310
'13:04.472',-0.280,0.270
'13:04.475',-0.225,0.210
'13:04.478',-0.170,0.160
'13:04.481',-0.140,0.110
'13:04.483',-0.145,0.070
'13:04.486',-0.185,0.040
'13:04.489',-0.205,0.035
'13:04.492',-0.210,0.055
'13:04.494',-0.205,0.055
'13:04.497',-0.205,0.060
'13:04.500',-0.220,0.045
'13:04.503',-0.235,0.035
'13:04.506',-0.250,0.035
'13:04.508',-0.240,0.050
'13:04.511',-0.240,0.055
'13:04.514',-0.245,0.050
'13:04.517',-0.265,0.035
'13:04.519',-0.275,0.030
'13:04.522',-0.280,0.035
'13:04.525',-0.280,0.045
'13:04.528',-0.265,0.070
'13:04.531',-0.260,0.055
'13:04.533',-0.265,0.035
'13:04.536',-0.280,0.035
'13:04.539',-0.285,0.040
'13:04.542',-0.285,0.055
'13:04.544',-0.265,0.075
'13:04.547',-0.265,0.060
'13:04.550',-0.275,0.045
'13:04.553',-0.305,0.040
'13:04.556',-0.290,0.050
'13:04.558',-0.285,0.075
'13:04.561',-0.260,0.075
'13:04.564',-0.260,0.095
'13:04.567',-0.265,0.070
'13:04.569',-0.275,0.055
'13:04.572',-0.275,0.045
'13:04.575',-0.275,0.055
'13:04.578',-0.265,0.050
'13:04.581',-0.265,0.055
'13:04.583',-0.270,0.035
'13:04.586',-0.275,0.025
'13:04.589',-0.270,0.040
'13:04.592',-0.280,0.070
'13:04.594',-0.260,0.085
'13:04.597',-0.255,0.075
'13:04.600',-0.250,0.065
'13:04.603',-0.260,0.070
'13:04.606',-0.260,0.075
'13:04.608',-0.260,0.095
'13:04.611',-0.245,0.100
'13:04.614',-0.235,0.085
'13:04.617',-0.240,0.075
'13:04.619',-0.255,0.060
'13:04.622',-0.255,0.055
'13:04.625',-0.235,0.045
'13:04.628',-0.225,0.055
'13:04.631',-0.215,0.045
'13:04.633',-0.225,0.000
'13:04.636',-0.245,-0.015
'13:04.639',-0.240,-0.045
'13:04.642',-0.235,-0.050
'13:04.644',-0.205,-0.040
'13:04.647',-0.190,-0.060
'13:04.650',-0.190,-0.085
'13:04.653',-0.200,-0.100
'13:04.656',-0.200,-0.105
'13:04.658',-0.190,-0.095
'13:04.661',-0.175,-0.090
'13:04.664',-0.165,-0.120
'13:04.667',-0.165,-0.135
'13:04.669',-0.175,-0.150
'13:04.672',-0.160,-0.150
'13:04.675',-0.140,-0.150
'13:04.678',-0.140,-0.145
'13:04.681',-0.140,-0.165
'13:04.683',-0.135,-0.185
'13:04.686',-0.140,-0.195
'13:04.689',-0.150,-0.205
'13:04.692',-0.140,-0.185
'13:04.694',-0.130,-0.185
'13:04.697',-0.120,-0.180
'13:04.700',-0.125,-0.195
'13:04.703',-0.135,-0.205
'13:04.706',-0.130,-0.205
'13:04.708',-0.110,-0.185
'13:04.711',-0.100,-0.175
'13:04.714',-0.100,-0.165
'13:04.717',-0.100,-0.190
'13:04.719',-0.120,-0.190
'13:04.722',-0.120,-0.165
'13:04.725',-0.100,-0.150
'13:04.728',-0.090,-0.130
'13:04.731',-0.100,-0.125
'13:04.733',-0.110,-0.140
'13:04.736',-0.110,-0.140
'13:04.739',-0.120,-0.120
'13:04.742',-0.105,-0.120
'13:04.744',-0.110,-0.080
'13:04.747',-0.115,-0.065
'13:04.750',-0.145,-0.065
'13:04.753',-0.160,-0.055
'13:04.756',-0.160,-0.015
'13:04.758',-0.160,0.030
'13:04.761',-0.155,0.045
'13:04.764',-0.145,0.045
'13:04.767',-0.175,0.030
'13:04.769',-0.200,0.020
'13:04.772',-0.210,0.020
'13:04.775',-0.200,0.035
'13:04.778',-0.195,0.050
'13:04.781',-0.195,0.045
'13:04.783',-0.210,0.035
'13:04.786',-0.235,0.040
'13:04.789',-0.240,0.045
'13:04.792',-0.225,0.070
'13:04.794',-0.225,0.080
'13:04.797',-0.210,0.070
'13:04.800',-0.215,0.060
'13:04.803',-0.230,0.060
'13:04.806',-0.240,0.075
'13:04.808',-0.235,0.075
'13:04.811',-0.230,0.085
'13:04.814',-0.230,0.090
'13:04.817',-0.250,0.075
'13:04.819',-0.245,0.070
'13:04.822',-0.245,0.075
'13:04.825',-0.235,0.095
'13:04.828',-0.220,0.090
'13:04.831',-0.225,0.075
'13:04.833',-0.225,0.065
'13:04.836',-0.230,0.060
'13:04.839',-0.235,0.065
'13:04.842',-0.220,0.065
'13:04.844',-0.215,0.070
'13:04.847',-0.205,0.075
'13:04.850',-0.210,0.060
'13:04.853',-0.205,0.055
'13:04.856',-0.225,0.075
'13:04.858',-0.210,0.085
'13:04.861',-0.190,0.095
'13:04.864',-0.185,0.095
'13:04.867',-0.170,0.080
'13:04.869',-0.185,0.075
'13:04.872',-0.160,0.075
'13:04.875',-0.145,0.085
'13:04.878',-0.125,0.100
'13:04.881',-0.110,0.105
'13:04.883',-0.100,0.105
'13:04.886',-0.100,0.110
'13:04.889',-0.095,0.130
'13:04.892',-0.060,0.135
'13:04.894',-0.015,0.120
'13:04.897',0.035,0.080
'13:04.900',0.090,0.015
'13:04.903',0.135,-0.075
'13:04.906',0.190,-0.150
'13:04.908',0.260,-0.210
'13:04.911',0.345,-0.255
'13:04.914',0.440,-0.350
'13:04.917',0.510,-0.420
'13:04.919',0.565,-0.535
'13:04.922',0.650,-0.615
'13:04.925',0.755,-0.710
'13:04.928',0.855,-0.830
'13:04.931',0.940,-0.940
'13:04.933',1.000,-1.025
'13:04.936',1.050,-1.080
'13:04.939',1.105,-1.135
'13:04.942',1.130,-1.150
'13:04.944',1.140,-1.150
'13:04.947',1.120,-1.125
'13:04.950',1.105,-1.135
'13:04.953',1.080,-1.145
'13:04.956',1.045,-1.120
'13:04.958',1.000,-1.090
'13:04.961',0.955,-1.055
'13:04.964',0.850,-1.040
'13:04.967',0.730,-1.010
'13:04.969',0.640,-0.985
'13:04.972',0.535,-0.925
'13:04.975',0.430,-0.855
'13:04.978',0.340,-0.795
'13:04.981',0.265,-0.740
'13:04.983',0.210,-0.680
'13:04.986',0.155,-0.615
'13:04.989',0.145,-0.520
'13:04.992',0.145,-0.445
'13:04.994',0.140,-0.380
'13:04.997',0.115,-0.345
'13:05.000',0.075,-0.335
'13:05.003',0.060,-0.315
'13:05.006',0.095,-0.260
'13:05.008',0.155,-0.225
'13:05.011',0.210,-0.195
'13:05.014',0.240,-0.175
'13:05.017',0.200,-0.175
'13:05.019',0.075,-0.150
'13:05.022',-0.120,-0.085
'13:05.025',-0.295,-0.020
'13:05.028',-0.415,0.050
'13:05.031',-0.470,0.130
'13:05.033',-0.495,0.185
'13:05.036',-0.515,0.240
'13:05.039',-0.525,0.270
'13:05.042',-0.540,0.300
'13:05.044',-0.570,0.305
'13:05.047',-0.590,0.320
'13:05.050',-0.605,0.335
'13:05.053',-0.630,0.330
'13:05.056',-0.655,0.355
'13:05.058',-0.670,0.375
'13:05.061',-0.660,0.395
'13:05.064',-0.650,0.390
'13:05.067',-0.660,0.390
'13:05.069',-0.680,0.390
'13:05.072',-0.700,0.400
'13:05.075',-0.690,0.415
'13:05.078',-0.690,0.445
'13:05.081',-0.710,0.440
'13:05.083',-0.705,0.435
'13:05.086',-0.735,0.430
'13:05.089',-0.740,0.455
'13:05.092',-0.730,0.470
'13:05.094',-0.720,0.490
'13:05.097',-0.710,0.495
'13:05.100',-0.725,0.490
'13:05.103',-0.745,0.480
'13:05.106',-0.765,0.495
'13:05.108',-0.765,0.515
'13:05.111',-0.765,0.530
'13:05.114',-0.785,0.535
'13:05.117',-0.790,0.515
'13:05.119',-0.810,0.530
'13:05.122',-0.820,0.545
'13:05.125',-0.800,0.560
'13:05.128',-0.800,0.590
'13:05.131',-0.825,0.585
'13:05.133',-0.860,0.585
'13:05.136',-0.870,0.590
'13:05.139',-0.860,0.605
'13:05.142',-0.860,0.635
'13:05.144',-0.825,0.670
'13:05.147',-0.830,0.670
'13:05.150',-0.835,0.675
'13:05.153',-0.855,0.690
'13:05.156',-0.855,0.700
'13:05.158',-0.850,0.730
'13:05.161',-0.825,0.750
'13:05.164',-0.820,0.750
'13:05.167',-0.815,0.755
'13:05.169',-0.830,0.750
'13:05.172',-0.825,0.745
'13:05.175',-0.810,0.770
'13:05.178',-0.780,0.775
'13:05.181',-0.780,0.755
'13:05.183',-0.770,0.750
'13:05.186',-0.770,0.730
'13:05.189',-0.755,0.730
'13:05.192',-0.745,0.735
'13:05.194',-0.725,0.740
'13:05.197',-0.705,0.725
'13:05.200',-0.680,0.695
'13:05.203',-0.675,0.675
'13:05.206',-0.660,0.660
'13:05.208',-0.625,0.645
'13:05.211',-0.600,0.635
'13:05.214',-0.570,0.600
'13:05.217',-0.560,0.565
'13:05.219',-0.560,0.545
'13:05.222',-0.555,0.515
'13:05.225',-0.505,0.495
'13:05.228',-0.480,0.495
'13:05.231',-0.470,0.460
'13:05.233',-0.465,0.420
'13:05.236',-0.460,0.395
'13:05.239',-0.455,0.370
'13:05.242',-0.430,0.350
'13:05.244',-0.395,0.345
'13:05.247',-0.390,0.300
'13:05.250',-0.405,0.275
'13:05.253',-0.415,0.235
'13:05.256',-0.410,0.225
'13:05.258',-0.385,0.230
'13:05.261',-0.375,0.225
'13:05.264',-0.375,0.215
'13:05.267',-0.390,0.195
'13:05.269',-0.375,0.180
'13:05.272',-0.370,0.175
'13:05.275',-0.345,0.165
'13:05.278',-0.335,0.155
'13:05.281',-0.325,0.140
'13:05.283',-0.340,0.100
'13:05.286',-0.360,0.090
'13:05.289',-0.345,0.095
'13:05.292',-0.325,0.110
'13:05.294',-0.310,0.110
'13:05.297',-0.335,0.085
'13:05.300',-0.345,0.070
'13:05.303',-0.350,0.060
'13:05.306',-0.340,0.055
'13:05.308',-0.335,0.075
'13:05.311',-0.325,0.090
'13:05.314',-0.320,0.080
'13:05.317',-0.310,0.065
'13:05.319',-0.325,0.060
'13:05.322',-0.335,0.060
'13:05.325',-0.315,0.080
'13:05.328',-0.300,0.095
'13:05.331',-0.300,0.080
'13:05.333',-0.310,0.060
'13:05.336',-0.330,0.050
'13:05.339',-0.330,0.060
'13:05.342',-0.300,0.060
'13:05.344',-0.290,0.055
'13:05.347',-0.280,0.050
'13:05.350',-0.300,0.040
'13:05.353',-0.315,0.045
'13:05.356',-0.315,0.040
'13:05.358',-0.285,0.070
'13:05.361',-0.255,0.070
'13:05.364',-0.265,0.055
'13:05.367',-0.265,0.035
'13:05.369',-0.275,0.035
'13:05.372',-0.280,0.045
'13:05.375',-0.270,0.060
'13:05.378',-0.255,0.060
'13:05.381',-0.260,0.050
'13:05.383',-0.270,0.030
'13:05.386',-0.280,0.015
'13:05.389',-0.285,0.020
'13:05.392',-0.275,0.035
'13:05.394',-0.275,0.035
'13:05.397',-0.280,0.025
'13:05.400',-0.295,0.010
'13:05.403',-0.290,0.000
'13:05.406',-0.290,0.020
'13:05.408',-0.275,0.020
'13:05.411',-0.255,0.025
'13:05.414',-0.265,0.025
'13:05.417',-0.265,0.010
'13:05.419',-0.295,-0.015
'13:05.422',-0.295,0.010
'13:05.425',-0.265,0.025
'13:05.428',-0.260,0.030
'13:05.431',-0.240,0.030
'13:05.433',-0.240,0.000
'13:05.436',-0.250,0.000
'13:05.439',-0.245,0.015
'13:05.442',-0.230,0.020
'13:05.444',-0.195,0.025
'13:05.447',-0.175,-0.010
'13:05.450',-0.180,-0.020
'13:05.453',-0.185,-0.015
'13:05.456',-0.160,-0.010
'13:05.458',-0.135,0.000
'13:05.461',-0.100,0.005
'13:05.464',-0.070,-0.010
'13:05.467',-0.065,-0.040
'13:05.469',-0.060,-0.045
'13:05.472',-0.040,-0.045
'13:05.475',-0.005,-0.045
'13:05.478',0.030,-0.060
'13:05.481',0.065,-0.090
'13:05.483',0.080,-0.125
'13:05.486',0.105,-0.160
'13:05.489',0.125,-0.180
'13:05.492',0.145,-0.200
'13:05.494',0.170,-0.225
'13:05.497',0.180,-0.245
'13:05.500',0.180,-0.280
'13:05.503',0.210,-0.310
'13:05.506',0.275,-0.320
'13:05.508',0.365,-0.335
'13:05.511',0.460,-0.360
'13:05.514',0.540,-0.400
'13:05.517',0.605,-0.465
'13:05.519',0.665,-0.530
'13:05.522',0.735,-0.575
'13:05.525',0.830,-0.640
'13:05.528',0.915,-0.695
'13:05.531',0.975,-0.750
'13:05.533',1.050,-0.810
'13:05.536',1.160,-0.880
'13:05.539',1.305,-0.920
'13:05.542',1.485,-0.865
'13:05.544',1.590,-0.790
'13:05.547',1.635,-0.710
'13:05.550',1.565,-0.610
'13:05.553',1.370,-0.550
'13:05.556',1.125,-0.505
'13:05.558',0.885,-0.450
'13:05.561',0.640,-0.335
'13:05.564',0.360,-0.200
'13:05.567',0.090,-0.085
'13:05.569',-0.110,0.015
'13:05.572',-0.205,0.055
'13:05.575',-0.225,0.050
'13:05.578',-0.220,0.055
'13:05.581',-0.280,0.050
'13:05.583',-0.315,0.055
'13:05.586',-0.360,0.075
'13:05.589',-0.390,0.100
'13:05.592',-0.390,0.130
'13:05.594',-0.385,0.140
'13:05.597',-0.400,0.145
'13:05.600',-0.435,0.125
'13:05.603',-0.460,0.140
'13:05.606',-0.475,0.135
'13:05.608',-0.475,0.160
'13:05.611',-0.485,0.170
'13:05.614',-0.490,0.170
'13:05.617',-0.500,0.155
'13:05.619',-0.510,0.155
'13:05.622',-0.525,0.180
'13:05.625',-0.515,0.200
'13:05.628',-0.510,0.195
'13:05.631',-0.505,0.210
'13:05.633',-0.520,0.195
'13:05.636',-0.555,0.190
'13:05.639',-0.545,0.210
'13:05.642',-0.550,0.230
'13:05.644',-0.525,0.235
'13:05.647',-0.535,0.220
'13:05.650',-0.550,0.225
'13:05.653',-0.575,0.245
'13:05.656',-0.580,0.265
'13:05.658',-0.580,0.270
'13:05.661',-0.580,0.305
'13:05.664',-0.585,0.310
'13:05.667',-0.610,0.295
'13:05.669',-0.635,0.300
'13:05.672',-0.640,0.300
'13:05.675',-0.635,0.310
'13:05.678',-0.630,0.315
'13:05.681',-0.640,0.315
'13:05.683',-0.665,0.290
'13:05.686',-0.680,0.265
'13:05.689',-0.710,0.265
'13:05.692',-0.700,0.275
'13:05.694',-0.700,0.285
'13:05.697',-0.715,0.265
'13:05.700',-0.720,0.255
'13:05.703',-0.755,0.250
'13:05.706',-0.745,0.265
'13:05.708',-0.745,0.275
'13:05.711',-0.745,0.285
'13:05.714',-0.740,0.285
'13:05.717',-0.760,0.275
'13:05.719',-0.790,0.275
'13:05.722',-0.800,0.295
'13:05.725',-0.810,0.300
'13:05.728',-0.780,0.320
'13:05.731',-0.780,0.305
'13:05.733',-0.795,0.295
'13:05.736',-0.810,0.280
'13:05.739',-0.810,0.310
'13:05.742',-0.815,0.320
'13:05.744',-0.780,0.325
'13:05.747',-0.785,0.320
'13:05.750',-0.790,0.330
'13:05.753',-0.800,0.315
'13:05.756',-0.790,0.335
'13:05.758',-0.770,0.335
'13:05.761',-0.750,0.330
'13:05.764',-0.735,0.295
'13:05.767',-0.725,0.270
'13:05.769',-0.735,0.255
'13:05.772',-0.690,0.245
'13:05.775',-0.685,0.250
'13:05.778',-0.665,0.260
'13:05.781',-0.655,0.245
'13:05.783',-0.640,0.220
'13:05.786',-0.620,0.215
'13:05.789',-0.610,0.215
'13:05.792',-0.575,0.215
'13:05.794',-0.545,0.220
'13:05.797',-0.525,0.195
'13:05.800',-0.510,0.160
'13:05.803',-0.520,0.140
'13:05.806',-0.510,0.140
'13:05.808',-0.475,0.125
'13:05.811',-0.445,0.120
'13:05.814',-0.430,0.090
'13:05.817',-0.410,0.080
'13:05.819',-0.415,0.060
'13:05.822',-0.410,0.050
'13:05.825',-0.380,0.045
'13:05.828',-0.360,0.040
'13:05.831',-0.350,0.030
'13:05.833',-0.345,0.020
'13:05.836',-0.360,0.000
'13:05.839',-0.335,-0.005
'13:05.842',-0.295,0.010
'13:05.844',-0.260,0.015
'13:05.847',-0.235,0.000
'13:05.850',-0.215,0.005
'13:05.853',-0.205,-0.005
'13:05.856',-0.165,0.000
'13:05.858',-0.120,0.030
'13:05.861',-0.085,0.050
'13:05.864',-0.055,0.055
'13:05.867',-0.040,0.055
'13:05.869',-0.020,0.045
'13:05.872',0.050,0.035
'13:05.875',0.150,0.005
'13:05.878',0.240,-0.045
'13:05.881',0.310,-0.125
'13:05.883',0.360,-0.210
'13:05.886',0.405,-0.280
'13:05.889',0.480,-0.340
'13:05.892',0.595,-0.400
'13:05.894',0.695,-0.460
'13:05.897',0.790,-0.540
'13:05.900',0.875,-0.660
'13:05.903',0.960,-0.755
'13:05.906',1.055,-0.820
'13:05.908',1.180,-0.870
'13:05.911',1.270,-0.905
'13:05.914',1.325,-0.950
'13:05.917',1.320,-0.985
'13:05.919',1.285,-1.010
'13:05.922',1.245,-1.045
'13:05.925',1.210,-1.075
'13:05.928',1.135,-1.110
'13:05.931',1.055,-1.135
'13:05.933',0.925,-1.125
'13:05.936',0.810,-1.120
'13:05.939',0.695,-1.065
'13:05.942',0.595,-1.010
'13:05.944',0.485,-0.960
'13:05.947',0.365,-0.905
'13:05.950',0.260,-0.855
'13:05.953',0.145,-0.790
'13:05.956',0.055,-0.725
'13:05.958',0.000,-0.640
'13:05.961',-0.025,-0.555
'13:05.964',-0.035,-0.485
'13:05.967',-0.025,-0.450
'13:05.969',0.005,-0.410
'13:05.972',0.040,-0.385
'13:05.975',0.075,-0.360
'13:05.978',0.100,-0.330
'13:05.981',0.115,-0.300
'13:05.983',0.120,-0.270
'13:05.986',0.115,-0.240
'13:05.989',0.085,-0.205
'13:05.992',0.035,-0.175
'13:05.994',-0.005,-0.130
'13:05.997',-0.080,-0.100
'13:06.000',-0.175,-0.060
'13:06.003',-0.265,0.000
'13:06.006',-0.330,0.060
'13:06.008',-0.365,0.125
'13:06.011',-0.385,0.175
'13:06.014',-0.415,0.210
'13:06.017',-0.445,0.210
'13:06.019',-0.475,0.210
'13:06.022',-0.490,0.255
'13:06.025',-0.510,0.275
'13:06.028',-0.500,0.295
'13:06.031',-0.500,0.325
'13:06.033',-0.530,0.330
'13:06.036',-0.550,0.340
'13:06.039',-0.555,0.365
'13:06.042',-0.550,0.375
'13:06.044',-0.540,0.395
'13:06.047',-0.545,0.395
'13:06.050',-0.545,0.390
'13:06.053',-0.560,0.385
'13:06.056',-0.560,0.420
'13:06.058',-0.550,0.430
'13:06.061',-0.530,0.435
'13:06.064',-0.530,0.440
'13:06.067',-0.530,0.445
'13:06.069',-0.540,0.440
'13:06.072',-0.530,0.465
'13:06.075',-0.520,0.485
'13:06.078',-0.510,0.510
'13:06.081',-0.510,0.505
'13:06.083',-0.515,0.495
'13:06.086',-0.515,0.495
'13:06.089',-0.505,0.505
'13:06.092',-0.480,0.515
'13:06.094',-0.460,0.535
'13:06.097',-0.445,0.530
'13:06.100',-0.460,0.530
'13:06.103',-0.460,0.540
'13:06.106',-0.450,0.560
'13:06.108',-0.435,0.585
'13:06.111',-0.430,0.610
'13:06.114',-0.415,0.620
'13:06.117',-0.420,0.615
'13:06.119',-0.405,0.610
'13:06.122',-0.405,0.620
'13:06.125',-0.390,0.625
'13:06.128',-0.370,0.620
'13:06.131',-0.360,0.605
'13:06.133',-0.360,0.605
'13:06.136',-0.370,0.610
'13:06.139',-0.350,0.620
'13:06.142',-0.330,0.620
'13:06.144',-0.305,0.630
'13:06.147',-0.290,0.635
'13:06.150',-0.285,0.635
'13:06.153',-0.280,0.605
'13:06.156',-0.275,0.610
'13:06.158',-0.265,0.615
'13:06.161',-0.230,0.605
'13:06.164',-0.220,0.595
'13:06.167',-0.215,0.570
'13:06.169',-0.230,0.565
'13:06.172',-0.215,0.555
'13:06.175',-0.185,0.555
'13:06.178',-0.155,0.535
'13:06.181',-0.145,0.505
'13:06.183',-0.130,0.465
'13:06.186',-0.150,0.440
'13:06.189',-0.145,0.425
'13:06.192',-0.140,0.420
'13:06.194',-0.110,0.405
'13:06.197',-0.115,0.365
'13:06.200',-0.105,0.335
'13:06.203',-0.110,0.305
'13:06.206',-0.120,0.290
'13:06.208',-0.100,0.275
'13:06.211',-0.100,0.260
'13:06.214',-0.110,0.220
'13:06.217',-0.110,0.180
'13:06.219',-0.130,0.170
'13:06.222',-0.125,0.150
'13:06.225',-0.100,0.155
'13:06.228',-0.090,0.140
'13:06.231',-0.105,0.110
'13:06.233',-0.115,0.095
'13:06.236',-0.140,0.095
'13:06.239',-0.135,0.085
'13:06.242',-0.135,0.100
'13:06.244',-0.125,0.085
'13:06.247',-0.155,0.065
'13:06.250',-0.160,0.050
'13:06.253',-0.165,0.040
'13:06.256',-0.185,0.050
'13:06.258',-0.180,0.070
'13:06.261',-0.165,0.070
'13:06.264',-0.165,0.055
'13:06.267',-0.180,0.035
'13:06.269',-0.190,0.035
'13:06.272',-0.225,0.045
'13:06.275',-0.225,0.060
'13:06.278',-0.220,0.065
'13:06.281',-0.205,0.045
'13:06.283',-0.225,0.035
'13:06.286',-0.250,0.030
'13:06.289',-0.260,0.030
'13:06.292',-0.250,0.050
'13:06.294',-0.225,0.050
'13:06.297',-0.225,0.050
'13:06.300',-0.225,0.035
'13:06.303',-0.240,0.030
'13:06.306',-0.240,0.040
'13:06.308',-0.225,0.055
'13:06.311',-0.215,0.060
'13:06.314',-0.225,0.070
'13:06.317',-0.230,0.055
'13:06.319',-0.240,0.060
'13:06.322',-0.235,0.055
'13:06.325',-0.230,0.050
'13:06.328',-0.225,0.040
'13:06.331',-0.220,0.015
'13:06.333',-0.215,0.020
'13:06.336',-0.220,0.025
'13:06.339',-0.205,0.025
'13:06.342',-0.200,0.050
'13:06.344',-0.185,0.050
'13:06.347',-0.185,0.055
'13:06.350',-0.170,0.050
'13:06.353',-0.175,0.035
'13:06.356',-0.165,0.020
'13:06.358',-0.160,0.020
'13:06.361',-0.165,0.005
'13:06.364',-0.165,0.010
'13:06.367',-0.175,0.005
'13:06.369',-0.180,-0.010
'13:06.372',-0.195,-0.005
'13:06.375',-0.200,0.005
'13:06.378',-0.180,0.010
'13:06.381',-0.190,0.015
'13:06.383',-0.175,0.010
'13:06.386',-0.180,-0.005
'13:06.389',-0.190,0.010
'13:06.392',-0.165,0.005
'13:06.394',-0.175,0.000
'13:06.397',-0.175,0.005
'13:06.400',-0.190,0.005
'13:06.403',-0.205,0.000
'13:06.406',-0.200,0.000
'13:06.408',-0.195,0.025
'13:06.411',-0.195,0.020
'13:06.414',-0.215,0.045
'13:06.417',-0.225,0.035
'13:06.419',-0.230,0.025
'13:06.422',-0.230,0.030
'13:06.425',-0.235,0.050
'13:06.428',-0.205,0.050
'13:06.431',-0.205,0.030
'13:06.433',-0.210,0.025
'13:06.436',-0.235,0.015
'13:06.439',-0.225,0.025
'13:06.442',-0.220,0.035
'13:06.444',-0.200,0.030
'13:06.447',-0.215,0.025
'13:06.450',-0.215,0.015
'13:06.453',-0.235,0.025
'13:06.456',-0.230,0.035
'13:06.458',-0.215,0.030
'13:06.461',-0.200,0.025
'13:06.464',-0.195,0.020
'13:06.467',-0.210,0.015
'13:06.469',-0.235,0.020
'13:06.472',-0.240,0.030
'13:06.475',-0.200,0.045
'13:06.478',-0.180,0.045
'13:06.481',-0.170,0.035
'13:06.483',-0.180,0.020
'13:06.486',-0.205,0.015
'13:06.489',-0.220,0.005
'13:06.492',-0.195,0.020
'13:06.494',-0.185,0.035
'13:06.497',-0.190,0.020
'13:06.500',-0.190,0.025
'13:06.503',-0.195,0.015
'13:06.506',-0.215,0.025
'13:06.508',-0.205,0.035
'13:06.511',-0.190,0.050
'13:06.514',-0.180,0.035
'13:06.517',-0.190,0.020
'13:06.519',-0.205,0.010
'13:06.522',-0.200,0.025
'13:06.525',-0.185,0.035
'13:06.528',-0.165,0.045
'13:06.531',-0.175,0.055
'13:06.533',-0.185,0.045
'13:06.536',-0.190,0.055
'13:06.539',-0.195,0.040
'13:06.542',-0.185,0.045
'13:06.544',-0.175,0.040
'13:06.547',-0.185,0.025
'13:06.550',-0.185,0.025
'13:06.553',-0.205,0.020
'13:06.556',-0.200,0.035
'13:06.558',-0.195,0.045
'13:06.561',-0.175,0.045
'13:06.564',-0.170,0.045
'13:06.567',-0.175,0.045
'13:06.569',-0.205,0.035
'13:06.572',-0.205,0.045
'13:06.575',-0.210,0.050
'13:06.578',-0.205,0.065
'13:06.581',-0.205,0.050
'13:06.583',-0.205,0.040
'13:06.586',-0.215,0.045
'13:06.589',-0.205,0.045
'13:06.592',-0.195,0.050
'13:06.594',-0.195,0.060
'13:06.597',-0.185,0.035
'13:06.600',-0.195,0.020
'13:06.603',-0.195,0.020
'13:06.606',-0.205,0.020
'13:06.608',-0.175,0.040
'13:06.611',-0.170,0.040
'13:06.614',-0.160,0.020
'13:06.617',-0.170,0.005
'13:06.619',-0.175,0.010
'13:06.622',-0.180,0.015
'13:06.625',-0.190,0.045
'13:06.628',-0.175,0.065
'13:06.631',-0.185,0.065
'13:06.633',-0.215,0.060
'13:06.636',-0.215,0.045
'13:06.639',-0.215,0.055
'13:06.642',-0.200,0.055
'13:06.644',-0.200,0.060
'13:06.647',-0.215,0.040
'13:06.650',-0.215,0.035
'13:06.653',-0.225,0.030
'13:06.656',-0.225,0.060
'13:06.658',-0.215,0.105
'13:06.661',-0.200,0.170
'13:06.664',-0.195,0.170
'13:06.667',-0.195,0.105
'13:06.669',-0.210,0.055
'13:06.672',-0.200,0.015
'13:06.675',-0.175,0.005
'13:06.678',-0.160,-0.005
'13:06.681',-0.155,-0.020
'13:06.683',-0.170,-0.040
'13:06.686',-0.195,-0.040
'13:06.689',-0.200,-0.030
'13:06.692',-0.180,-0.015
'13:06.694',-0.170,0.020
'13:06.697',-0.175,0.040
'13:06.700',-0.180,0.040
'13:06.703',-0.205,0.050
'13:06.706',-0.205,0.040
'13:06.708',-0.185,0.035
'13:06.711',-0.185,0.025
'13:06.714',-0.180,0.020
'13:06.717',-0.195,0.010
'13:06.719',-0.205,0.005
'13:06.722',-0.180,0.020
'13:06.725',-0.165,0.045
'13:06.728',-0.150,0.050
'13:06.731',-0.145,0.035
'13:06.733',-0.155,0.035
'13:06.736',-0.180,0.015
'13:06.739',-0.175,0.025
'13:06.742',-0.180,0.040
'13:06.744',-0.160,0.040
'13:06.747',-0.160,0.030
'13:06.750',-0.170,0.015
'13:06.753',-0.170,0.010
'13:06.756',-0.180,0.025
'13:06.758',-0.180,0.035
'13:06.761',-0.160,0.045
'13:06.764',-0.170,0.035
'13:06.767',-0.165,0.035
'13:06.769',-0.180,0.030
'13:06.772',-0.180,0.045
'13:06.775',-0.170,0.070
'13:06.778',-0.155,0.060
'13:06.781',-0.160,0.060
'13:06.783',-0.180,0.055
'13:06.786',-0.185,0.045
'13:06.789',-0.185,0.060
'13:06.792',-0.165,0.075
'13:06.794',-0.150,0.085
'13:06.797',-0.160,0.070
'13:06.800',-0.160,0.055
'13:06.803',-0.165,0.055
'13:06.806',-0.170,0.065
'13:06.808',-0.165,0.065
'13:06.811',-0.150,0.090
'13:06.814',-0.155,0.070
'13:06.817',-0.165,0.055
'13:06.819',-0.175,0.055
'13:06.822',-0.190,0.055
'13:06.825',-0.180,0.065
'13:06.828',-0.150,0.065
'13:06.831',-0.135,0.085
'13:06.833',-0.125,0.065
'13:06.836',-0.135,0.055
'13:06.839',-0.140,0.045
'13:06.842',-0.130,0.070
'13:06.844',-0.125,0.045
'13:06.847',-0.130,0.015
'13:06.850',-0.145,-0.005
'13:06.853',-0.150,-0.010
'13:06.856',-0.140,-0.005
'13:06.858',-0.110,-0.005
'13:06.861',-0.085,0.000
'13:06.864',-0.075,-0.020
'13:06.867',-0.045,-0.045
'13:06.869',0.010,-0.055
'13:06.872',0.095,-0.060
'13:06.875',0.205,-0.065
'13:06.878',0.335,-0.075
'13:06.881',0.475,-0.125
'13:06.883',0.620,-0.180
'13:06.886',0.765,-0.220
'13:06.889',0.945,-0.235
'13:06.892',1.125,-0.230
'13:06.894',1.295,-0.180
'13:06.897',1.380,-0.110
'13:06.900',1.330,-0.050
'13:06.903',1.120,-0.010
'13:06.906',0.800,0.045
'13:06.908',0.510,0.090
'13:06.911',0.265,0.130
'13:06.914',0.000,0.145
'13:06.917',-0.175,0.135
'13:06.919',-0.260,0.145
'13:06.922',-0.215,0.115
'13:06.925',-0.145,0.075
'13:06.928',-0.110,0.050
'13:06.931',-0.130,0.005
'13:06.933',-0.175,-0.025
'13:06.936',-0.205,-0.040
'13:06.939',-0.200,-0.040
'13:06.942',-0.185,-0.020
'13:06.944',-0.205,0.015
'13:06.947',-0.220,0.035
'13:06.950',-0.225,0.000
'13:06.953',-0.245,-0.010
'13:06.956',-0.250,-0.010
'13:06.958',-0.250,0.005
'13:06.961',-0.260,0.015
'13:06.964',-0.280,0.025
'13:06.967',-0.285,0.025
'13:06.969',-0.290,0.035
'13:06.972',-0.295,0.050
'13:06.975',-0.275,0.075
'13:06.978',-0.270,0.065
'13:06.981',-0.260,0.080
'13:06.983',-0.265,0.080
'13:06.986',-0.270,0.085
'13:06.989',-0.280,0.090
'13:06.992',-0.265,0.110
'13:06.994',-0.240,0.125
'13:06.997',-0.240,0.105
'13:07.000',-0.255,0.085
'13:07.003',-0.260,0.070
'13:07.006',-0.270,0.080
'13:07.008',-0.260,0.100
'13:07.011',-0.225,0.100
'13:07.014',-0.235,0.105
'13:07.017',-0.235,0.115
'13:07.019',-0.245,0.125
'13:07.022',-0.255,0.130
'13:07.025',-0.245,0.120
'13:07.028',-0.240,0.125
'13:07.031',-0.245,0.105
'13:07.033',-0.255,0.070
'13:07.036',-0.255,0.035
'13:07.039',-0.245,0.025
'13:07.042',-0.220,0.025
'13:07.044',-0.195,0.035
'13:07.047',-0.220,0.020
'13:07.050',-0.235,0.000
'13:07.053',-0.255,0.005
'13:07.056',-0.255,0.035
'13:07.058',-0.245,0.045
'13:07.061',-0.235,0.030
'13:07.064',-0.225,0.030
'13:07.067',-0.235,0.000
'13:07.069',-0.250,-0.025
'13:07.072',-0.255,-0.030
'13:07.075',-0.240,-0.025
'13:07.078',-0.215,-0.030
'13:07.081',-0.215,-0.045
'13:07.083',-0.220,-0.060
'13:07.086',-0.235,-0.045
'13:07.089',-0.230,-0.030
'13:07.092',-0.210,0.010
'13:07.094',-0.180,0.010
'13:07.097',-0.175,0.000
'13:07.100',-0.180,-0.045
'13:07.103',-0.200,-0.075
'13:07.106',-0.200,-0.055
'13:07.108',-0.165,-0.055
'13:07.111',-0.140,-0.045
'13:07.114',-0.130,-0.045
'13:07.117',-0.140,-0.075
'13:07.119',-0.120,-0.070
'13:07.122',-0.125,-0.060
'13:07.125',-0.110,-0.045
'13:07.128',-0.110,-0.055
'13:07.131',-0.105,-0.065
'13:07.133',-0.105,-0.090
'13:07.136',-0.110,-0.095
'13:07.139',-0.105,-0.105
'13:07.142',-0.090,-0.075
'13:07.144',-0.070,-0.070
'13:07.147',-0.055,-0.075
'13:07.150',-0.050,-0.095
'13:07.153',-0.050,-0.085
'13:07.156',-0.055,-0.085
'13:07.158',-0.040,-0.060
'13:07.161',-0.025,-0.050
'13:07.164',-0.020,-0.060
'13:07.167',-0.020,-0.090
'13:07.169',-0.015,-0.090
'13:07.172',-0.025,-0.065
'13:07.175',0.005,-0.060
'13:07.178',0.020,-0.035
'13:07.181',0.020,-0.045
'13:07.183',0.015,-0.060
'13:07.186',0.000,-0.065
'13:07.189',0.000,-0.035
'13:07.192',-0.015,-0.025
'13:07.194',-0.025,-0.010
'13:07.197',-0.045,0.010
'13:07.200',-0.065,0.000
'13:07.203',-0.085,0.020
'13:07.206',-0.100,0.045
'13:07.208',-0.090,0.050
'13:07.211',-0.070,0.040
'13:07.214',-0.065,0.020
'13:07.217',-0.105,0.025
'13:07.219',-0.120,0.015
'13:07.222',-0.135,0.050
'13:07.225',-0.115,0.075
'13:07.228',-0.105,0.090
'13:07.231',-0.100,0.080
'13:07.233',-0.110,0.065
'13:07.236',-0.135,0.065
'13:07.239',-0.140,0.080
'13:07.242',-0.145,0.090
'13:07.244',-0.115,0.100
'13:07.247',-0.125,0.085
'13:07.250',-0.135,0.085
'13:07.253',-0.150,0.080
'13:07.256',-0.155,0.085
'13:07.258',-0.130,0.080
'13:07.261',-0.110,0.095
'13:07.264',-0.120,0.115
'13:07.267',-0.130,0.110
'13:07.269',-0.150,0.075
'13:07.272',-0.155,0.050
'13:07.275',-0.140,0.050
'13:07.278',-0.130,0.050
'13:07.281',-0.125,0.050
'13:07.283',-0.145,0.035
'13:07.286',-0.165,0.045
'13:07.289',-0.160,0.065
'13:07.292',-0.140,0.075
'13:07.294',-0.130,0.070
'13:07.297',-0.125,0.055
'13:07.300',-0.155,0.030
'13:07.303',-0.170,0.025
'13:07.306',-0.170,0.055
'13:07.308',-0.145,0.050
'13:07.311',-0.125,0.045
'13:07.314',-0.130,0.045
'13:07.317',-0.140,0.035
'13:07.319',-0.155,0.045
'13:07.322',-0.150,0.060
'13:07.325',-0.145,0.070
'13:07.328',-0.125,0.065
'13:07.331',-0.125,0.020
'13:07.333',-0.125,0.000
'13:07.336',-0.155,-0.010
'13:07.339',-0.155,0.005
'13:07.342',-0.145,0.030
'13:07.344',-0.125,0.040
'13:07.347',-0.120,0.050
'13:07.350',-0.130,0.035
'13:07.353',-0.135,0.025
'13:07.356',-0.130,0.015
'13:07.358',-0.125,0.015
'13:07.361',-0.090,0.010
'13:07.364',-0.075,0.005
'13:07.367',-0.110,-0.005
'13:07.369',-0.130,-0.010
'13:07.372',-0.145,0.020
'13:07.375',-0.140,0.035
'13:07.378',-0.130,0.050
'13:07.381',-0.125,0.050
'13:07.383',-0.120,0.060
'13:07.386',-0.130,0.045
'13:07.389',-0.130,0.060
'13:07.392',-0.125,0.065
'13:07.394',-0.120,0.060
'13:07.397',-0.115,0.055
'13:07.400',-0.135,0.060
'13:07.403',-0.150,0.060
'13:07.406',-0.155,0.065
'13:07.408',-0.135,0.075
'13:07.411',-0.130,0.095
'13:07.414',-0.120,0.100
'13:07.417',-0.140,0.085
'13:07.419',-0.170,0.065
'13:07.422',-0.180,0.060
'13:07.425',-0.160,0.070
'13:07.428',-0.150,0.045
'13:07.431',-0.155,0.050
'13:07.433',-0.160,0.045
'13:07.436',-0.185,0.090
'13:07.439',-0.175,0.115
'13:07.442',-0.165,0.140
'13:07.444',-0.150,0.105
'13:07.447',-0.150,0.055
'13:07.450',-0.165,0.040
'13:07.453',-0.175,0.040
'13:07.456',-0.170,0.075
'13:07.458',-0.165,0.095
'13:07.461',-0.140,0.095
'13:07.464',-0.150,0.070
'13:07.467',-0.165,0.040
'13:07.469',-0.180,0.040
'13:07.472',-0.180,0.045
'13:07.475',-0.170,0.080
'13:07.478',-0.155,0.090
'13:07.481',-0.160,0.065
'13:07.483',-0.165,0.060
'13:07.486',-0.185,0.045
'13:07.489',-0.175,0.045
'13:07.492',-0.185,0.070
'13:07.494',-0.175,0.060
'13:07.497',-0.175,0.070
'13:07.500',-0.165,0.050
'13:07.503',-0.180,0.055
'13:07.506',-0.180,0.075
'13:07.508',-0.175,0.070
'13:07.511',-0.150,0.085
'13:07.514',-0.150,0.070
'13:07.517',-0.160,0.055
'13:07.519',-0.175,0.055
'13:07.522',-0.165,0.045
'13:07.525',-0.155,0.060
'13:07.528',-0.140,0.045
'13:07.531',-0.145,0.025
'13:07.533',-0.170,0.015
'13:07.536',-0.170,0.030
'13:07.539',-0.185,0.040
'13:07.542',-0.155,0.055
'13:07.544',-0.130,0.065
'13:07.547',-0.130,0.080
'13:07.550',-0.165,0.065
'13:07.553',-0.170,0.065
'13:07.556',-0.160,0.080
'13:07.558',-0.155,0.090
'13:07.561',-0.135,0.095
'13:07.564',-0.145,0.080
'13:07.567',-0.155,0.060
'13:07.569',-0.175,0.065
'13:07.572',-0.150,0.030
'13:07.575',-0.090,0.015
'13:07.578',-0.010,-0.010
'13:07.581',0.050,-0.040
'13:07.583',0.090,-0.045
'13:07.586',0.175,-0.060
'13:07.589',0.290,-0.060
'13:07.592',0.455,-0.090
'13:07.594',0.655,-0.115
'13:07.597',0.860,-0.150
'13:07.600',1.040,-0.150
'13:07.603',1.190,-0.085
'13:07.606',1.275,0.035
'13:07.608',1.220,0.130
'13:07.611',1.040,0.160
'13:07.614',0.750,0.145
'13:07.617',0.455,0.150
'13:07.619',0.155,0.195
'13:07.622',-0.105,0.235
'13:07.625',-0.290,0.280
'13:07.628',-0.340,0.315
'13:07.631',-0.335,0.285
'13:07.633',-0.290,0.225
'13:07.636',-0.260,0.140
'13:07.639',-0.215,0.095
'13:07.642',-0.185,0.075
'13:07.644',-0.160,0.055
'13:07.647',-0.185,0.050
'13:07.650',-0.185,0.040
'13:07.653',-0.215,0.065
'13:07.656',-0.245,0.070
'13:07.658',-0.250,0.090
'13:07.661',-0.245,0.090
'13:07.664',-0.245,0.065
'13:07.667',-0.245,0.070
'13:07.669',-0.260,0.070
'13:07.672',-0.260,0.060
'13:07.675',-0.270,0.060
'13:07.678',-0.265,0.050
'13:07.681',-0.260,0.025
'13:07.683',-0.260,0.025
'13:07.686',-0.270,0.055
'13:07.689',-0.280,0.070
'13:07.692',-0.265,0.095
'13:07.694',-0.265,0.110
'13:07.697',-0.265,0.100
'13:07.700',-0.290,0.075
'13:07.703',-0.310,0.045
'13:07.706',-0.315,0.030
'13:07.708',-0.300,0.035
'13:07.711',-0.270,0.035
'13:07.714',-0.270,0.035
'13:07.717',-0.285,0.035
'13:07.719',-0.305,0.040
'13:07.722',-0.285,0.050
'13:07.725',-0.260,0.070
'13:07.728',-0.255,0.065
'13:07.731',-0.260,0.045
'13:07.733',-0.285,0.050
'13:07.736',-0.295,0.060
'13:07.739',-0.300,0.080
'13:07.742',-0.310,0.090
'13:07.744',-0.295,0.070
'13:07.747',-0.295,0.050
'13:07.750',-0.305,0.015
'13:07.753',-0.315,0.015
'13:07.756',-0.305,0.030
'13:07.758',-0.300,0.025
'13:07.761',-0.265,0.025
'13:07.764',-0.255,0.015
'13:07.767',-0.250,0.010
'13:07.769',-0.250,-0.005
'13:07.772',-0.240,0.000
'13:07.775',-0.250,0.015
'13:07.778',-0.240,0.010
'13:07.781',-0.250,0.025
'13:07.783',-0.270,0.000
'13:07.786',-0.270,-0.010
'13:07.789',-0.270,-0.030
'13:07.792',-0.250,-0.040
'13:07.794',-0.225,-0.070
'13:07.797',-0.230,-0.105
'13:07.800',-0.255,-0.145
'13:07.803',-0.270,-0.160
'13:07.806',-0.270,-0.140
'13:07.808',-0.260,-0.125
'13:07.811',-0.235,-0.115
'13:07.814',-0.230,-0.110
'13:07.817',-0.235,-0.115
'13:07.819',-0.245,-0.110
'13:07.822',-0.225,-0.090
'13:07.825',-0.225,-0.090
'13:07.828',-0.200,-0.105
'13:07.831',-0.200,-0.135
'13:07.833',-0.215,-0.135
'13:07.836',-0.225,-0.135
'13:07.839',-0.220,-0.140
'13:07.842',-0.205,-0.120
'13:07.844',-0.175,-0.135
'13:07.847',-0.190,-0.140
'13:07.850',-0.180,-0.160
'13:07.853',-0.190,-0.165
'13:07.856',-0.185,-0.150
'13:07.858',-0.165,-0.135
'13:07.861',-0.140,-0.125
'13:07.864',-0.130,-0.135
'13:07.867',-0.150,-0.130
'13:07.869',-0.175,-0.130
'13:07.872',-0.180,-0.120
'13:07.875',-0.170,-0.110
'13:07.878',-0.150,-0.080
'13:07.881',-0.130,-0.085
'13:07.883',-0.135,-0.065
'13:07.886',-0.135,-0.055
'13:07.889',-0.125,-0.045
'13:07.892',-0.130,-0.035
'13:07.894',-0.130,-0.050
'13:07.897',-0.140,-0.055
'13:07.900',-0.160,-0.060
'13:07.903',-0.185,-0.045
'13:07.906',-0.160,-0.005
'13:07.908',-0.155,0.015
'13:07.911',-0.140,0.060
'13:07.914',-0.135,0.065
'13:07.917',-0.155,0.045
'13:07.919',-0.170,0.030
'13:07.922',-0.165,0.010
'13:07.925',-0.180,0.015
'13:07.928',-0.165,0.035
'13:07.931',-0.175,0.045
'13:07.933',-0.195,0.040
'13:07.936',-0.210,0.030
'13:07.939',-0.215,0.035
'13:07.942',-0.220,0.050
'13:07.944',-0.210,0.080
'13:07.947',-0.205,0.075
'13:07.950',-0.205,0.035
'13:07.953',-0.210,0.005
'13:07.956',-0.220,0.025
'13:07.958',-0.230,0.055
'13:07.961',-0.225,0.090
'13:07.964',-0.225,0.080
'13:07.967',-0.200,0.075
'13:07.969',-0.220,0.065
'13:07.972',-0.215,0.075
'13:07.975',-0.215,0.070
'13:07.978',-0.210,0.080
'13:07.981',-0.215,0.070
'13:07.983',-0.210,0.080
'13:07.986',-0.205,0.055
'13:07.989',-0.205,0.065
'13:07.992',-0.200,0.080
'13:07.994',-0.190,0.085
'13:07.997',-0.190,0.095
'13:08.000',-0.210,0.080
'13:08.003',-0.205,0.070
'13:08.006',-0.205,0.060
'13:08.008',-0.185,0.055
'13:08.011',-0.170,0.060
'13:08.014',-0.170,0.040
'13:08.017',-0.185,0.035
'13:08.019',-0.195,0.030
'13:08.022',-0.195,0.050
'13:08.025',-0.215,0.050
'13:08.028',-0.190,0.070
'13:08.031',-0.185,0.055
'13:08.033',-0.210,0.050
'13:08.036',-0.235,0.075
'13:08.039',-0.230,0.075
'13:08.042',-0.215,0.060
'13:08.044',-0.180,0.040
'13:08.047',-0.180,0.020
'13:08.050',-0.210,-0.005
'13:08.053',-0.215,0.025
'13:08.056',-0.220,0.050
'13:08.058',-0.205,0.095
'13:08.061',-0.185,0.105
'13:08.064',-0.195,0.060
'13:08.067',-0.200,0.010
'13:08.069',-0.220,-0.010
'13:08.072',-0.210,0.025
'13:08.075',-0.185,0.055
'13:08.078',-0.165,0.065
'13:08.081',-0.190,0.055
'13:08.083',-0.205,0.030
'13:08.086',-0.210,0.025
'13:08.089',-0.185,0.045
'13:08.092',-0.160,0.075
'13:08.094',-0.150,0.060
'13:08.097',-0.185,0.040
'13:08.100',-0.210,0.005
'13:08.103',-0.195,0.005
'13:08.106',-0.190,0.030
'13:08.108',-0.185,0.035
'13:08.111',-0.190,0.040
'13:08.114',-0.190,0.035
'13:08.117',-0.200,0.030
'13:08.119',-0.210,0.030
'13:08.122',-0.190,0.045
'13:08.125',-0.155,0.060
'13:08.128',-0.145,0.055
'13:08.131',-0.140,0.060
'13:08.133',-0.170,0.050
'13:08.136',-0.190,0.050
'13:08.139',-0.215,0.055
'13:08.142',-0.205,0.055
'13:08.144',-0.205,0.055
'13:08.147',-0.205,0.055
'13:08.150',-0.215,0.045
'13:08.153',-0.225,0.045
'13:08.156',-0.210,0.070
'13:08.158',-0.200,0.090
'13:08.161',-0.180,0.085
'13:08.164',-0.175,0.070
'13:08.167',-0.195,0.035
'13:08.169',-0.210,0.005
'13:08.172',-0.220,0.005
'13:08.175',-0.190,0.005
'13:08.178',-0.175,0.010
'13:08.181',-0.190,0.005
'13:08.183',-0.180,0.000
'13:08.186',-0.185,0.010
'13:08.189',-0.200,0.020
'13:08.192',-0.195,0.015
'13:08.194',-0.155,0.000
'13:08.197',-0.085,0.005
'13:08.200',-0.040,-0.010
'13:08.203',0.005,-0.005
'13:08.206',0.070,-0.015
'13:08.208',0.205,-0.060
'13:08.211',0.395,-0.120
'13:08.214',0.575,-0.165
'13:08.217',0.765,-0.180
'13:08.219',0.970,-0.150
'13:08.222',1.135,-0.040
'13:08.225',1.250,0.070
'13:08.228',1.245,0.145
'13:08.231',1.145,0.165
'13:08.233',0.950,0.145
'13:08.236',0.700,0.175
'13:08.239',0.425,0.215
'13:08.242',0.150,0.290
'13:08.244',-0.115,0.355
'13:08.247',-0.335,0.375
'13:08.250',-0.430,0.335
'13:08.253',-0.405,0.285
'13:08.256',-0.330,0.215
'13:08.258',-0.255,0.170
'13:08.261',-0.205,0.120
'13:08.264',-0.210,0.065
'13:08.267',-0.225,0.030
'13:08.269',-0.270,0.010
'13:08.272',-0.265,0.025
'13:08.275',-0.245,0.045
'13:08.278',-0.260,0.040
'13:08.281',-0.255,0.045
'13:08.283',-0.280,0.025
'13:08.286',-0.295,0.015
'13:08.289',-0.295,0.035
'13:08.292',-0.270,0.050
'13:08.294',-0.265,0.065
'13:08.297',-0.270,0.050
'13:08.300',-0.295,0.035
'13:08.303',-0.305,0.055
'13:08.306',-0.315,0.070
'13:08.308',-0.290,0.080
'13:08.311',-0.290,0.070
'13:08.314',-0.275,0.050
'13:08.317',-0.290,0.035
'13:08.319',-0.300,0.035
'13:08.322',-0.305,0.030
'13:08.325',-0.305,0.035
'13:08.328',-0.290,0.030
'13:08.331',-0.285,0.045
'13:08.333',-0.270,0.045
'13:08.336',-0.285,0.030
'13:08.339',-0.290,0.045
'13:08.342',-0.305,0.050
'13:08.344',-0.280,0.040
'13:08.347',-0.255,0.040
'13:08.350',-0.250,0.005
'13:08.353',-0.275,0.005
'13:08.356',-0.290,0.020
'13:08.358',-0.285,0.025
'13:08.361',-0.265,0.040
'13:08.364',-0.255,0.030
'13:08.367',-0.250,0.025
'13:08.369',-0.260,0.030
'13:08.372',-0.280,0.005
'13:08.375',-0.265,-0.015
'13:08.378',-0.235,-0.030
'13:08.381',-0.245,-0.040
'13:08.383',-0.255,-0.035
'13:08.386',-0.270,-0.040
'13:08.389',-0.250,-0.020
'13:08.392',-0.235,-0.015
'13:08.394',-0.215,-0.015
'13:08.397',-0.220,-0.025
'13:08.400',-0.230,-0.055
'13:08.403',-0.240,-0.070
'13:08.406',-0.245,-0.070
'13:08.408',-0.235,-0.070
'13:08.411',-0.225,-0.110
'13:08.414',-0.215,-0.165
'13:08.417',-0.220,-0.190
'13:08.419',-0.240,-0.200
'13:08.422',-0.255,-0.180
'13:08.425',-0.225,-0.175
'13:08.428',-0.195,-0.175
'13:08.431',-0.195,-0.185
'13:08.433',-0.200,-0.195
'13:08.436',-0.200,-0.195
'13:08.439',-0.205,-0.195
'13:08.442',-0.175,-0.190
'13:08.444',-0.170,-0.185
'13:08.447',-0.165,-0.225
'13:08.450',-0.160,-0.220
'13:08.453',-0.155,-0.230
'13:08.456',-0.150,-0.210
'13:08.458',-0.140,-0.205
'13:08.461',-0.135,-0.195
'13:08.464',-0.150,-0.195
'13:08.467',-0.150,-0.185
'13:08.469',-0.145,-0.185
'13:08.472',-0.115,-0.170
'13:08.475',-0.095,-0.165
'13:08.478',-0.080,-0.160
'13:08.481',-0.080,-0.170
'13:08.483',-0.090,-0.185
'13:08.486',-0.120,-0.190
'13:08.489',-0.105,-0.170
'13:08.492',-0.095,-0.155
'13:08.494',-0.090,-0.160
'13:08.497',-0.100,-0.135
'13:08.500',-0.100,-0.145
'13:08.503',-0.110,-0.105
'13:08.506',-0.115,-0.085
'13:08.508',-0.115,-0.070
'13:08.511',-0.100,-0.045
'13:08.514',-0.100,-0.050
'13:08.517',-0.120,-0.040
'13:08.519',-0.135,-0.030
'13:08.522',-0.145,-0.005
'13:08.525',-0.140,0.020
'13:08.528',-0.150,0.040
'13:08.531',-0.155,0.035
'13:08.533',-0.180,0.040
'13:08.536',-0.180,0.055
'13:08.539',-0.180,0.090
'13:08.542',-0.170,0.120
'13:08.544',-0.160,0.140
'13:08.547',-0.160,0.135
'13:08.550',-0.170,0.110
'13:08.553',-0.180,0.070
'13:08.556',-0.190,0.050
'13:08.558',-0.180,0.050
'13:08.561',-0.165,0.015
'13:08.564',-0.165,0.020
'13:08.567',-0.190,0.015
'13:08.569',-0.210,0.030
'13:08.572',-0.215,0.070
'13:08.575',-0.205,0.110
'13:08.578',-0.170,0.140
'13:08.581',-0.170,0.160
'13:08.583',-0.165,0.130
'13:08.586',-0.175,0.075
'13:08.589',-0.170,0.035
'13:08.592',-0.160,0.025
'13:08.594',-0.165,0.040
'13:08.597',-0.175,0.050
'13:08.600',-0.180,0.045
'13:08.603',-0.190,0.035
'13:08.606',-0.180,0.035
'13:08.608',-0.170,0.055
'13:08.611',-0.160,0.060
'13:08.614',-0.165,0.055
'13:08.617',-0.165,0.045
'13:08.619',-0.165,0.035
'13:08.622',-0.170,0.040
'13:08.625',-0.150,0.045
'13:08.628',-0.125,0.040
'13:08.631',-0.130,0.025
'13:08.633',-0.125,-0.005
'13:08.636',-0.125,-0.005
'13:08.639',-0.130,0.015
'13:08.642',-0.120,0.030
'13:08.644',-0.110,0.040
'13:08.647',-0.105,0.030
'13:08.650',-0.120,0.010
'13:08.653',-0.125,0.015
'13:08.656',-0.120,0.030
'13:08.658',-0.110,0.040
'13:08.661',-0.100,0.050
'13:08.664',-0.105,0.020
'13:08.667',-0.115,0.005
'13:08.669',-0.130,0.020
'13:08.672',-0.135,0.025
'13:08.675',-0.145,0.040
'13:08.678',-0.140,0.050
'13:08.681',-0.145,0.040
'13:08.683',-0.140,0.020
'13:08.686',-0.130,0.025
'13:08.689',-0.115,0.025
'13:08.692',-0.105,0.055
'13:08.694',-0.105,0.070
'13:08.697',-0.125,0.080
'13:08.700',-0.130,0.065
'13:08.703',-0.155,0.080
'13:08.706',-0.170,0.090
'13:08.708',-0.160,0.100
'13:08.711',-0.135,0.105
'13:08.714',-0.130,0.080
'13:08.717',-0.125,0.070
'13:08.719',-0.130,0.060
'13:08.722',-0.130,0.075
'13:08.725',-0.140,0.085
'13:08.728',-0.145,0.070
'13:08.731',-0.155,0.055
'13:08.733',-0.180,0.025
'13:08.736',-0.180,0.030
'13:08.739',-0.160,0.040
'13:08.742',-0.145,0.055
'13:08.744',-0.135,0.065
'13:08.747',-0.145,0.070
'13:08.750',-0.155,0.065
'13:08.753',-0.165,0.090
'13:08.756',-0.160,0.100
'13:08.758',-0.145,0.090
'13:08.761',-0.145,0.060
'13:08.764',-0.160,0.035
'13:08.767',-0.180,0.005
'13:08.769',-0.195,0.010
'13:08.772',-0.170,0.025
'13:08.775',-0.155,0.045
'13:08.778',-0.130,0.035
'13:08.781',-0.135,0.045
'13:08.783',-0.155,0.040
'13:08.786',-0.160,0.025
'13:08.789',-0.165,0.055
'13:08.792',-0.140,0.065
'13:08.794',-0.110,0.065
'13:08.797',-0.120,0.055
'13:08.800',-0.145,0.045
'13:08.803',-0.160,0.040
'13:08.806',-0.170,0.075
'13:08.808',-0.155,0.075
'13:08.811',-0.125,0.070
'13:08.814',-0.120,0.055
'13:08.817',-0.140,0.040
'13:08.819',-0.155,0.050
'13:08.822',-0.145,0.060
'13:08.825',-0.125,0.090
'13:08.828',-0.105,0.095
'13:08.831',-0.110,0.100
'13:08.833',-0.115,0.080
'13:08.836',-0.115,0.075
'13:08.839',-0.115,0.060
'13:08.842',-0.105,0.065
'13:08.844',-0.125,0.050
'13:08.847',-0.115,0.035
'13:08.850',-0.110,0.000
'13:08.853',-0.120,-0.005
'13:08.856',-0.095,0.005
'13:08.858',-0.045,0.000
'13:08.861',0.025,0.000
'13:08.864',0.095,-0.010
'13:08.867',0.160,-0.025
'13:08.869',0.265,-0.055
'13:08.872',0.430,-0.070
'13:08.875',0.605,-0.100
'13:08.878',0.805,-0.125
'13:08.881',0.990,-0.145
'13:08.883',1.175,-0.140
'13:08.886',1.335,-0.080
'13:08.889',1.425,0.005
'13:08.892',1.395,0.075
'13:08.894',1.225,0.085
'13:08.897',0.935,0.085
'13:08.900',0.590,0.105
'13:08.903',0.280,0.165
'13:08.906',-0.020,0.230
'13:08.908',-0.225,0.275
'13:08.911',-0.310,0.285
'13:08.914',-0.310,0.250
'13:08.917',-0.240,0.185
'13:08.919',-0.195,0.135
'13:08.922',-0.160,0.115
'13:08.925',-0.145,0.110
'13:08.928',-0.160,0.110
'13:08.931',-0.160,0.110
'13:08.933',-0.205,0.105
'13:08.936',-0.225,0.105
'13:08.939',-0.215,0.095
'13:08.942',-0.190,0.100
'13:08.944',-0.190,0.085
'13:08.947',-0.195,0.080
'13:08.950',-0.210,0.090
'13:08.953',-0.225,0.110
'13:08.956',-0.210,0.110
'13:08.958',-0.205,0.120
'13:08.961',-0.195,0.090
'13:08.964',-0.205,0.090
'13:08.967',-0.225,0.080
'13:08.969',-0.245,0.085
'13:08.972',-0.235,0.105
'13:08.975',-0.235,0.120
'13:08.978',-0.230,0.155
'13:08.981',-0.215,0.140
'13:08.983',-0.205,0.060
'13:08.986',-0.225,0.005
'13:08.989',-0.250,0.005
'13:08.992',-0.240,0.060
'13:08.994',-0.245,0.115
'13:08.997',-0.235,0.145
'13:09.000',-0.235,0.100
'13:09.003',-0.235,0.040
'13:09.006',-0.220,0.000
'13:09.008',-0.215,-0.015
'13:09.011',-0.195,-0.015
'13:09.014',-0.210,-0.025
'13:09.017',-0.215,-0.030
'13:09.019',-0.235,-0.015
'13:09.022',-0.225,0.015
'13:09.025',-0.220,0.040
'13:09.028',-0.190,0.055
'13:09.031',-0.180,0.045
'13:09.033',-0.195,0.020
'13:09.036',-0.195,0.015
'13:09.039',-0.195,0.040
'13:09.042',-0.180,0.045
'13:09.044',-0.170,0.050
'13:09.047',-0.180,0.025
'13:09.050',-0.210,0.020
'13:09.053',-0.215,0.020
'13:09.056',-0.185,0.020
'13:09.058',-0.170,0.030
'13:09.061',-0.145,0.010
'13:09.064',-0.140,0.005
'13:09.067',-0.150,-0.015
'13:09.069',-0.170,0.000
'13:09.072',-0.150,0.010
'13:09.075',-0.155,0.005
'13:09.078',-0.130,0.010
'13:09.081',-0.135,-0.010
'13:09.083',-0.145,-0.035
'13:09.086',-0.155,-0.030
'13:09.089',-0.130,-0.015
'13:09.092',-0.100,-0.025
'13:09.094',-0.080,-0.050
'13:09.097',-0.085,-0.070
'13:09.100',-0.095,-0.085
'13:09.103',-0.120,-0.070
'13:09.106',-0.125,-0.045
'13:09.108',-0.110,-0.020
'13:09.111',-0.090,-0.025
'13:09.114',-0.080,-0.045
'13:09.117',-0.065,-0.095
'13:09.119',-0.070,-0.130
'13:09.122',-0.060,-0.150
'13:09.125',-0.055,-0.155
'13:09.128',-0.045,-0.160
'13:09.131',-0.055,-0.180
'13:09.133',-0.075,-0.180
'13:09.136',-0.075,-0.165
'13:09.139',-0.060,-0.145
'13:09.142',-0.020,-0.130
'13:09.144',-0.005,-0.135
'13:09.147',-0.015,-0.150
'13:09.150',-0.030,-0.160
'13:09.153',-0.055,-0.150
'13:09.156',-0.050,-0.120
'13:09.158',-0.050,-0.090
'13:09.161',-0.025,-0.065
'13:09.164',-0.030,-0.065
'13:09.167',-0.025,-0.060
'13:09.169',-0.040,-0.060
'13:09.172',-0.025,-0.055
'13:09.175',-0.015,-0.045
'13:09.178',-0.005,-0.055
'13:09.181',0.005,-0.055
'13:09.183',-0.005,-0.050
'13:09.186',-0.020,-0.050
'13:09.189',-0.030,-0.020
'13:09.192',-0.035,0.000
'13:09.194',-0.025,0.020
'13:09.197',-0.055,0.055
'13:09.200',-0.055,0.075
'13:09.203',-0.080,0.100
'13:09.206',-0.065,0.130
'13:09.208',-0.060,0.110
'13:09.211',-0.070,0.060
'13:09.214',-0.075,0.025
'13:09.217',-0.100,-0.005
'13:09.219',-0.120,-0.010
'13:09.222',-0.120,0.020
'13:09.225',-0.105,0.045
'13:09.228',-0.095,0.055
'13:09.231',-0.095,0.065
'13:09.233',-0.110,0.075
'13:09.236',-0.115,0.095
'13:09.239',-0.105,0.115
'13:09.242',-0.100,0.140
'13:09.244',-0.070,0.145
'13:09.247',-0.085,0.120
'13:09.250',-0.110,0.070
'13:09.253',-0.125,0.025
'13:09.256',-0.115,0.010
'13:09.258',-0.105,0.025
'13:09.261',-0.100,0.045
'13:09.264',-0.090,0.050
'13:09.267',-0.090,0.035
'13:09.269',-0.070,0.055
'13:09.272',-0.050,0.080
'13:09.275',-0.010,0.095
'13:09.278',0.030,0.100
'13:09.281',0.050,0.110
'13:09.283',0.070,0.100
'13:09.286',0.060,0.110
'13:09.289',0.095,0.125
'13:09.292',0.135,0.150
'13:09.294',0.215,0.120
'13:09.297',0.280,0.055
'13:09.300',0.330,-0.030
'13:09.303',0.380,-0.105
'13:09.306',0.440,-0.170
'13:09.308',0.530,-0.220
'13:09.311',0.630,-0.290
'13:09.314',0.720,-0.375
'13:09.317',0.775,-0.465
'13:09.319',0.825,-0.560
'13:09.322',0.900,-0.625
'13:09.325',0.990,-0.710
'13:09.328',1.075,-0.785
'13:09.331',1.170,-0.875
'13:09.333',1.230,-0.960
'13:09.336',1.265,-1.025
'13:09.339',1.285,-1.030
'13:09.342',1.280,-1.025
'13:09.344',1.255,-1.020
'13:09.347',1.225,-1.040
'13:09.350',1.205,-1.065
'13:09.353',1.170,-1.060
'13:09.356',1.130,-1.045
'13:09.358',1.055,-1.020
'13:09.361',0.965,-1.025
'13:09.364',0.855,-1.000
'13:09.367',0.725,-0.980
'13:09.369',0.590,-0.915
'13:09.372',0.445,-0.840
'13:09.375',0.360,-0.780
'13:09.378',0.275,-0.730
'13:09.381',0.195,-0.685
'13:09.383',0.155,-0.625
'13:09.386',0.140,-0.530
'13:09.389',0.125,-0.425
'13:09.392',0.115,-0.285
'13:09.394',0.100,-0.180
'13:09.397',0.105,-0.145
'13:09.400',0.145,-0.190
'13:09.403',0.210,-0.240
'13:09.406',0.310,-0.280
'13:09.408',0.395,-0.275
'13:09.411',0.455,-0.240
'13:09.414',0.440,-0.200
'13:09.417',0.330,-0.165
'13:09.419',0.150,-0.105
'13:09.422',-0.030,-0.045
'13:09.425',-0.160,0.030
'13:09.428',-0.260,0.095
'13:09.431',-0.320,0.160
'13:09.433',-0.375,0.215
'13:09.436',-0.405,0.270
'13:09.439',-0.410,0.290
'13:09.442',-0.435,0.305
'13:09.444',-0.440,0.315
'13:09.447',-0.470,0.320
'13:09.450',-0.480,0.310
'13:09.453',-0.495,0.335
'13:09.456',-0.500,0.330
'13:09.458',-0.475,0.355
'13:09.461',-0.490,0.365
'13:09.464',-0.525,0.370
'13:09.467',-0.565,0.360
'13:09.469',-0.595,0.395
'13:09.472',-0.615,0.405
'13:09.475',-0.595,0.440
'13:09.478',-0.600,0.430
'13:09.481',-0.615,0.430
'13:09.483',-0.615,0.425
'13:09.486',-0.630,0.430
'13:09.489',-0.605,0.470
'13:09.492',-0.585,0.480
'13:09.494',-0.570,0.480
'13:09.497',-0.615,0.465
'13:09.500',-0.665,0.485
'13:09.503',-0.695,0.535
'13:09.506',-0.690,0.595
'13:09.508',-0.675,0.655
'13:09.511',-0.645,0.670
'13:09.514',-0.675,0.625
'13:09.517',-0.690,0.580
'13:09.519',-0.690,0.550
'13:09.522',-0.690,0.520
'13:09.525',-0.650,0.540
'13:09.528',-0.650,0.555
'13:09.531',-0.660,0.565
'13:09.533',-0.665,0.570
'13:09.536',-0.670,0.595
'13:09.539',-0.660,0.625
'13:09.542',-0.635,0.665
'13:09.544',-0.625,0.685
'13:09.547',-0.635,0.705
'13:09.550',-0.640,0.710
'13:09.553',-0.655,0.730
'13:09.556',-0.640,0.720
'13:09.558',-0.635,0.705
'13:09.561',-0.615,0.695
'13:09.564',-0.590,0.700
'13:09.567',-0.590,0.710
'13:09.569',-0.585,0.705
'13:09.572',-0.560,0.725
'13:09.575',-0.535,0.735
'13:09.578',-0.515,0.745
'13:09.581',-0.505,0.755
'13:09.583',-0.505,0.750
'13:09.586',-0.510,0.740
'13:09.589',-0.510,0.725
'13:09.592',-0.480,0.730
'13:09.594',-0.450,0.725
'13:09.597',-0.440,0.710
'13:09.600',-0.440,0.695
'13:09.603',-0.425,0.685
'13:09.606',-0.395,0.685
'13:09.608',-0.380,0.675
'13:09.611',-0.355,0.655
'13:09.614',-0.355,0.625
'13:09.617',-0.350,0.590
'13:09.619',-0.340,0.560
'13:09.622',-0.315,0.555
'13:09.625',-0.285,0.550
'13:09.628',-0.255,0.530
'13:09.631',-0.245,0.505
'13:09.633',-0.245,0.485
'13:09.636',-0.245,0.460
'13:09.639',-0.250,0.440
'13:09.642',-0.245,0.405
'13:09.644',-0.240,0.385
'13:09.647',-0.255,0.370
'13:09.650',-0.270,0.355
'13:09.653',-0.285,0.355
'13:09.656',-0.280,0.370
'13:09.658',-0.235,0.390
'13:09.661',-0.215,0.395
'13:09.664',-0.205,0.395
'13:09.667',-0.215,0.375
'13:09.669',-0.215,0.290
'13:09.672',-0.215,0.180
'13:09.675',-0.195,0.090
'13:09.678',-0.195,0.070
'13:09.681',-0.200,0.060
'13:09.683',-0.205,0.065
'13:09.686',-0.205,0.090
'13:09.689',-0.195,0.130
'13:09.692',-0.190,0.155
'13:09.694',-0.190,0.155
'13:09.697',-0.190,0.115
'13:09.700',-0.200,0.075
'13:09.703',-0.210,0.015
'13:09.706',-0.225,0.030
'13:09.708',-0.210,0.055
'13:09.711',-0.180,0.070
'13:09.714',-0.180,0.075
'13:09.717',-0.170,0.060
'13:09.719',-0.165,0.070
'13:09.722',-0.140,0.085
'13:09.725',-0.115,0.100
'13:09.728',-0.110,0.100
'13:09.731',-0.140,0.100
'13:09.733',-0.170,0.090
'13:09.736',-0.200,0.095
'13:09.739',-0.195,0.115
'13:09.742',-0.170,0.120
'13:09.744',-0.155,0.105
'13:09.747',-0.165,0.105
'13:09.750',-0.165,0.095
'13:09.753',-0.160,0.090
'13:09.756',-0.170,0.100
'13:09.758',-0.150,0.105
'13:09.761',-0.130,0.105
'13:09.764',-0.140,0.095
'13:09.767',-0.155,0.070
'13:09.769',-0.170,0.065
'13:09.772',-0.160,0.075
'13:09.775',-0.150,0.080
'13:09.778',-0.145,0.080
'13:09.781',-0.145,0.075
'13:09.783',-0.155,0.060
'13:09.786',-0.170,0.060
'13:09.789',-0.165,0.075
'13:09.792',-0.155,0.085
'13:09.794',-0.135,0.085
'13:09.797',-0.150,0.065
'13:09.800',-0.150,0.055
'13:09.803',-0.150,0.045
'13:09.806',-0.145,0.060
'13:09.808',-0.125,0.055
'13:09.811',-0.105,0.050
'13:09.814',-0.105,0.035
'13:09.817',-0.135,0.030
'13:09.819',-0.150,0.030
'13:09.822',-0.150,0.045
'13:09.825',-0.140,0.055
'13:09.828',-0.125,0.055
'13:09.831',-0.120,0.045
'13:09.833',-0.135,0.025
'13:09.836',-0.145,0.035
'13:09.839',-0.145,0.055
'13:09.842',-0.125,0.070
'13:09.844',-0.110,0.055
'13:09.847',-0.105,0.050
'13:09.850',-0.105,0.035
'13:09.853',-0.105,0.045
'13:09.856',-0.095,0.055
'13:09.858',-0.075,0.060
'13:09.861',-0.055,0.050
'13:09.864',-0.075,0.045
'13:09.867',-0.090,0.015
'13:09.869',-0.115,0.005
'13:09.872',-0.110,0.030
'13:09.875',-0.110,0.040
'13:09.878',-0.100,0.050
'13:09.881',-0.110,0.050
'13:09.883',-0.120,0.035
'13:09.886',-0.115,0.040
'13:09.889',-0.125,0.065
'13:09.892',-0.125,0.095
'13:09.894',-0.145,0.105
'13:09.897',-0.140,0.110
'13:09.900',-0.140,0.090
'13:09.903',-0.145,0.060
'13:09.906',-0.125,0.055
'13:09.908',-0.120,0.060
'13:09.911',-0.115,0.055
'13:09.914',-0.100,0.065
'13:09.917',-0.110,0.035
'13:09.919',-0.130,0.035
'13:09.922',-0.130,0.025
'13:09.925',-0.125,0.020
'13:09.928',-0.125,0.015
'13:09.931',-0.135,0.000
'13:09.933',-0.150,-0.020
'13:09.936',-0.150,-0.010
'13:09.939',-0.150,-0.005
'13:09.942',-0.130,0.015
'13:09.944',-0.145,0.030
'13:09.947',-0.130,0.025
'13:09.950',-0.135,0.010
'13:09.953',-0.145,0.020
'13:09.956',-0.130,0.030
'13:09.958',-0.125,0.055
'13:09.961',-0.110,0.055
'13:09.964',-0.125,0.050
'13:09.967',-0.145,0.035
'13:09.969',-0.160,0.045
'13:09.972',-0.175,0.095
'13:09.975',-0.165,0.135
'13:09.978',-0.140,0.125
'13:09.981',-0.125,0.085
'13:09.983',-0.125,0.010
'13:09.986',-0.135,-0.010
'13:09.989',-0.120,0.000
'13:09.992',-0.120,0.015
'13:09.994',-0.095,0.015
'13:09.997',-0.095,0.020
'13:10.000',-0.090,0.020
'13:10.003',-0.090,0.015
'13:10.006',-0.080,0.025
'13:10.008',-0.100,0.015
'13:10.011',-0.120,0.015
'13:10.014',-0.140,0.035
'13:10.017',-0.150,0.030
'13:10.019',-0.145,0.060
'13:10.022',-0.130,0.060
'13:10.025',-0.110,0.075
'13:10.028',-0.110,0.070
'13:10.031',-0.120,0.065
'13:10.033',-0.130,0.045
'13:10.036',-0.110,0.055
'13:10.039',-0.090,0.075
'13:10.042',-0.080,0.090
'13:10.044',-0.100,0.105
'13:10.047',-0.150,0.085
'13:10.050',-0.190,0.065
'13:10.053',-0.210,0.060
'13:10.056',-0.210,0.065
'13:10.058',-0.180,0.060
'13:10.061',-0.150,0.055
'13:10.064',-0.155,0.055
'13:10.067',-0.165,0.055
'13:10.069',-0.150,0.055
'13:10.072',-0.135,0.065
'13:10.075',-0.120,0.075
'13:10.078',-0.110,0.075
'13:10.081',-0.135,0.045
'13:10.083',-0.145,0.035
'13:10.086',-0.160,0.030
'13:10.089',-0.140,0.040
'13:10.092',-0.115,0.065
'13:10.094',-0.105,0.070
'13:10.097',-0.100,0.065
'13:10.100',-0.110,0.050
'13:10.103',-0.120,0.025
'13:10.106',-0.125,0.025
'13:10.108',-0.120,0.045
'13:10.111',-0.120,0.055
'13:10.114',-0.115,0.040
'13:10.117',-0.115,0.030
'13:10.119',-0.115,0.010
'13:10.122',-0.110,0.010
'13:10.125',-0.090,0.015
'13:10.128',-0.085,0.015
'13:10.131',-0.075,0.005
'13:10.133',-0.090,0.010
'13:10.136',-0.095,0.005
'13:10.139',-0.090,0.025
'13:10.142',-0.075,0.035
'13:10.144',-0.065,0.030
'13:10.147',-0.080,0.025
'13:10.150',-0.100,0.010
'13:10.153',-0.095,0.020
'13:10.156',-0.055,0.030
'13:10.158',-0.030,0.025
'13:10.161',-0.020,0.025
'13:10.164',-0.085,0.020
'13:10.167',-0.135,0.020
'13:10.169',-0.145,0.035
'13:10.172',-0.110,0.030
'13:10.175',-0.065,0.055
'13:10.178',-0.065,0.045
'13:10.181',-0.105,0.035
'13:10.183',-0.165,0.050
'13:10.186',-0.205,0.065
'13:10.189',-0.205,0.110
'13:10.192',-0.175,0.145
'13:10.194',-0.150,0.195
'13:10.197',-0.170,0.260
'13:10.200',-0.195,0.370
'13:10.203',-0.190,0.450
'13:10.206',-0.190,0.415
'13:10.208',-0.155,0.215
'13:10.211',-0.120,-0.030
'13:10.214',-0.105,-0.175
'13:10.217',-0.100,-0.185
'13:10.219',-0.105,-0.150
'13:10.222',-0.100,-0.105
'13:10.225',-0.090,-0.070
'13:10.228',-0.095,-0.060
'13:10.231',-0.095,-0.060
'13:10.233',-0.115,-0.060
'13:10.236',-0.120,-0.050
'13:10.239',-0.105,-0.015
'13:10.242',-0.090,-0.010
'13:10.244',-0.075,0.010
'13:10.247',-0.080,0.000
'13:10.250',-0.090,-0.005
'13:10.253',-0.105,0.005
'13:10.256',-0.100,0.025
'13:10.258',-0.095,0.035
'13:10.261',-0.085,0.040
'13:10.264',-0.085,0.040
'13:10.267',-0.100,0.025
'13:10.269',-0.115,0.040
'13:10.272',-0.105,0.045
'13:10.275',-0.100,0.060
'13:10.278',-0.095,0.060
'13:10.281',-0.095,0.055
'13:10.283',-0.115,0.055
'13:10.286',-0.115,0.045
'13:10.289',-0.110,0.070
'13:10.292',-0.095,0.075
'13:10.294',-0.080,0.075
'13:10.297',-0.090,0.050
'13:10.300',-0.100,0.035
'13:10.303',-0.115,0.030
'13:10.306',-0.120,0.050
'13:10.308',-0.095,0.055
'13:10.311',-0.090,0.050
'13:10.314',-0.090,0.040
'13:10.317',-0.105,0.025
'13:10.319',-0.100,0.030
'13:10.322',-0.070,0.050
'13:10.325',-0.045,0.060
'13:10.328',-0.015,0.065
'13:10.331',-0.040,0.035
'13:10.333',-0.085,0.030
'13:10.336',-0.100,0.040
'13:10.339',-0.115,0.055
'13:10.342',-0.110,0.065
'13:10.344',-0.085,0.065
'13:10.347',-0.075,0.070
'13:10.350',-0.070,0.095
'13:10.353',-0.040,0.110
'13:10.356',-0.025,0.130
'13:10.358',-0.030,0.140
'13:10.361',-0.075,0.115
'13:10.364',-0.115,0.090
'13:10.367',-0.135,0.025
'13:10.369',-0.120,-0.015
'13:10.372',-0.090,-0.040
'13:10.375',-0.055,-0.025
'13:10.378',-0.045,-0.025
'13:10.381',-0.050,-0.005
'13:10.383',-0.060,-0.005
'13:10.386',-0.055,-0.015
'13:10.389',-0.055,-0.015
'13:10.392',-0.045,0.005
'13:10.394',-0.055,0.005
'13:10.397',-0.050,0.000
'13:10.400',-0.040,-0.030
'13:10.403',-0.015,-0.030
'13:10.406',0.035,-0.020
'13:10.408',0.125,-0.015
'13:10.411',0.225,-0.025
'13:10.414',0.325,-0.060
'13:10.417',0.445,-0.090
'13:10.419',0.585,-0.135
'13:10.422',0.730,-0.180
'13:10.425',0.910,-0.185
'13:10.428',1.095,-0.210
'13:10.431',1.275,-0.200
'13:10.433',1.410,-0.160
'13:10.436',1.455,-0.070
'13:10.439',1.400,0.025
'13:10.442',1.210,0.070
'13:10.444',0.920,0.110
'13:10.447',0.615,0.155
'13:10.450',0.350,0.205
'13:10.453',0.095,0.240
'13:10.456',-0.085,0.250
'13:10.458',-0.160,0.235
'13:10.461',-0.135,0.160
'13:10.464',-0.080,0.080
'13:10.467',-0.035,-0.005
'13:10.469',-0.045,-0.065
'13:10.472',-0.065,-0.085
'13:10.475',-0.095,-0.065
'13:10.478',-0.105,-0.050
'13:10.481',-0.120,-0.035
'13:10.483',-0.115,-0.025
'13:10.486',-0.120,0.005
'13:10.489',-0.125,0.020
'13:10.492',-0.125,0.030
'13:10.494',-0.130,0.010
'13:10.497',-0.135,-0.010
'13:10.500',-0.125,-0.010
'13:10.503',-0.115,-0.020
'13:10.506',-0.135,0.015
'13:10.508',-0.170,0.035
'13:10.511',-0.165,0.040
'13:10.514',-0.160,0.040
'13:10.517',-0.155,0.025
'13:10.519',-0.165,0.025
'13:10.522',-0.165,0.045
'13:10.525',-0.170,0.060
'13:10.528',-0.170,0.050
'13:10.531',-0.205,0.050
'13:10.533',-0.250,0.055
'13:10.536',-0.255,0.070
'13:10.539',-0.230,0.080
'13:10.542',-0.195,0.090
'13:10.544',-0.175,0.095
'13:10.547',-0.170,0.080
'13:10.550',-0.175,0.070
'13:10.553',-0.210,0.070
'13:10.556',-0.220,0.100
'13:10.558',-0.220,0.100
'13:10.561',-0.195,0.110
'13:10.564',-0.200,0.110
'13:10.567',-0.205,0.095
'13:10.569',-0.210,0.095
'13:10.572',-0.195,0.105
'13:10.575',-0.180,0.115
'13:10.578',-0.175,0.130
'13:10.581',-0.195,0.130
'13:10.583',-0.220,0.120
'13:10.586',-0.235,0.130
'13:10.589',-0.215,0.120
'13:10.592',-0.200,0.100
'13:10.594',-0.195,0.100
'13:10.597',-0.185,0.085
'13:10.600',-0.195,0.080
'13:10.603',-0.195,0.040
'13:10.606',-0.180,0.015
'13:10.608',-0.170,-0.010
'13:10.611',-0.155,-0.005
'13:10.614',-0.165,-0.020
'13:10.617',-0.175,-0.015
'13:10.619',-0.175,-0.005
'13:10.622',-0.155,0.000
'13:10.625',-0.145,-0.005
'13:10.628',-0.125,-0.015
'13:10.631',-0.140,-0.035
'13:10.633',-0.125,-0.050
'13:10.636',-0.145,-0.040
'13:10.639',-0.110,-0.035
'13:10.642',-0.105,-0.020
'13:10.644',-0.085,-0.020
'13:10.647',-0.080,-0.045
'13:10.650',-0.090,-0.060
'13:10.653',-0.095,-0.060
'13:10.656',-0.055,-0.065
'13:10.658',-0.025,-0.060
'13:10.661',0.005,-0.075
'13:10.664',0.005,-0.100
'13:10.667',-0.030,-0.110
'13:10.669',-0.035,-0.105
'13:10.672',-0.055,-0.065
'13:10.675',-0.045,-0.045
'13:10.678',-0.055,-0.035
'13:10.681',-0.045,-0.035
'13:10.683',-0.040,-0.050
'13:10.686',-0.025,-0.070
'13:10.689',0.000,-0.090
'13:10.692',0.015,-0.090
'13:10.694',0.040,-0.100
'13:10.697',0.040,-0.105
'13:10.700',0.030,-0.105
'13:10.703',0.035,-0.100
'13:10.706',0.065,-0.080
'13:10.708',0.095,-0.060
'13:10.711',0.105,-0.065
'13:10.714',0.090,-0.075
'13:10.717',0.070,-0.070
'13:10.719',0.060,-0.025
'13:10.722',0.055,0.005
'13:10.725',0.075,-0.010
'13:10.728',0.055,-0.050
'13:10.731',0.015,-0.095
'13:10.733',0.005,-0.110
'13:10.736',0.000,-0.105
'13:10.739',0.040,-0.070
'13:10.742',0.055,-0.040
'13:10.744',0.065,-0.030
'13:10.747',0.040,-0.015
'13:10.750',-0.010,0.005
'13:10.753',-0.035,0.040
'13:10.756',-0.025,0.030
'13:10.758',-0.005,0.010
'13:10.761',0.015,-0.025
'13:10.764',0.010,-0.030
'13:10.767',-0.005,-0.035
'13:10.769',-0.025,-0.025
'13:10.772',-0.045,0.005
'13:10.775',-0.050,0.035
'13:10.778',-0.040,0.045
'13:10.781',-0.055,0.040
'13:10.783',-0.070,0.040
'13:10.786',-0.090,0.045
'13:10.789',-0.090,0.045
'13:10.792',-0.085,0.065
'13:10.794',-0.065,0.060
'13:10.797',-0.070,0.055
'13:10.800',-0.080,0.055
'13:10.803',-0.105,0.060
'13:10.806',-0.110,0.075
'13:10.808',-0.095,0.080
'13:10.811',-0.080,0.075
'13:10.814',-0.100,0.055
'13:10.817',-0.100,0.035
'13:10.819',-0.105,0.040
'13:10.822',-0.100,0.055
'13:10.825',-0.070,0.060
'13:10.828',-0.070,0.050
'13:10.831',-0.085,0.050
'13:10.833',-0.110,0.050
'13:10.836',-0.125,0.075
'13:10.839',-0.120,0.100
'13:10.842',-0.115,0.110
'13:10.844',-0.095,0.105
'13:10.847',-0.105,0.065
'13:10.850',-0.105,0.020
'13:10.853',-0.110,0.005
'13:10.856',-0.105,0.010
'13:10.858',-0.095,0.025
'13:10.861',-0.090,0.010
'13:10.864',-0.100,0.015
'13:10.867',-0.130,0.015
'13:10.869',-0.125,0.030
'13:10.872',-0.100,0.045
'13:10.875',-0.080,0.065
'13:10.878',-0.070,0.060
'13:10.881',-0.095,0.060
'13:10.883',-0.080,0.045
'13:10.886',-0.100,0.070
'13:10.889',-0.070,0.090
'13:10.892',-0.050,0.095
'13:10.894',-0.040,0.060
'13:10.897',-0.050,0.010
'13:10.900',-0.065,-0.015
'13:10.903',-0.055,-0.020
'13:10.906',-0.060,0.000
'13:10.908',-0.130,0.015
'13:10.911',-0.190,0.010
'13:10.914',-0.215,-0.025
'13:10.917',-0.200,-0.070
'13:10.919',-0.195,-0.070
'13:10.922',-0.170,-0.045
'13:10.925',-0.160,-0.025
'13:10.928',-0.135,-0.020
'13:10.931',-0.120,-0.020
'13:10.933',-0.110,-0.040
'13:10.936',-0.085,-0.030
'13:10.939',-0.065,-0.015
'13:10.942',-0.075,0.000
'13:10.944',-0.100,-0.005
'13:10.947',-0.145,0.010
'13:10.950',-0.180,0.000
'13:10.953',-0.185,0.015
'13:10.956',-0.165,0.025
'13:10.958',-0.140,0.030
'13:10.961',-0.125,0.030
'13:10.964',-0.130,0.035
'13:10.967',-0.140,0.010
'13:10.969',-0.135,0.030
'13:10.972',-0.115,0.040
'13:10.975',-0.100,0.070
'13:10.978',-0.090,0.090
'13:10.981',-0.125,0.105
'13:10.983',-0.155,0.110
'13:10.986',-0.190,0.110
'13:10.989',-0.195,0.085
'13:10.992',-0.170,0.070
'13:10.994',-0.155,0.040
'13:10.997',-0.145,0.010
'13:11.000',-0.150,-0.015
'13:11.003',-0.155,-0.020
'13:11.006',-0.150,-0.005
'13:11.008',-0.135,0.015
'13:11.011',-0.120,0.050
'13:11.014',-0.105,0.030
'13:11.017',-0.110,0.015
'13:11.019',-0.130,0.030
'13:11.022',-0.130,0.055
'13:11.025',-0.120,0.055
'13:11.028',-0.110,0.050
'13:11.031',-0.110,0.015
'13:11.033',-0.125,0.000
'13:11.036',-0.145,-0.010
'13:11.039',-0.140,0.005
'13:11.042',-0.120,0.035
'13:11.044',-0.105,0.040
'13:11.047',-0.120,0.030
'13:11.050',-0.140,0.015
'13:11.053',-0.140,0.025
'13:11.056',-0.120,0.035
'13:11.058',-0.120,0.055
'13:11.061',-0.105,0.035
'13:11.064',-0.115,0.005
'13:11.067',-0.125,-0.005
'13:11.069',-0.115,-0.020
'13:11.072',-0.070,-0.005
'13:11.075',-0.015,0.015
'13:11.078',0.050,0.005
'13:11.081',0.110,-0.040
'13:11.083',0.205,-0.065
'13:11.086',0.320,-0.110
'13:11.089',0.495,-0.130
'13:11.092',0.680,-0.130
'13:11.094',0.895,-0.130
'13:11.097',1.090,-0.115
'13:11.100',1.230,-0.055
'13:11.103',1.305,0.040
'13:11.106',1.305,0.115
'13:11.108',1.170,0.125
'13:11.111',0.950,0.090
'13:11.114',0.660,0.080
'13:11.117',0.355,0.120
'13:11.119',0.060,0.200
'13:11.122',-0.185,0.255
'13:11.125',-0.330,0.310
'13:11.128',-0.310,0.310
'13:11.131',-0.290,0.270
'13:11.133',-0.275,0.180
'13:11.136',-0.295,0.130
'13:11.139',-0.275,0.075
'13:11.142',-0.235,0.010
'13:11.144',-0.185,-0.035
'13:11.147',-0.190,-0.065
'13:11.150',-0.205,-0.065
'13:11.153',-0.220,-0.050
'13:11.156',-0.220,-0.030
'13:11.158',-0.210,-0.010
'13:11.161',-0.215,-0.010
'13:11.164',-0.225,-0.025
'13:11.167',-0.260,-0.020
'13:11.169',-0.275,-0.010
'13:11.172',-0.260,0.010
'13:11.175',-0.250,0.015
'13:11.178',-0.255,0.020
'13:11.181',-0.265,0.005
'13:11.183',-0.280,-0.005
'13:11.186',-0.265,-0.005
'13:11.189',-0.260,0.000
'13:11.192',-0.240,0.020
'13:11.194',-0.235,0.005
'13:11.197',-0.255,0.015
'13:11.200',-0.285,-0.005
'13:11.203',-0.305,-0.005
'13:11.206',-0.295,0.005
'13:11.208',-0.270,0.030
'13:11.211',-0.265,0.020
'13:11.214',-0.285,0.000
'13:11.217',-0.295,0.010
'13:11.219',-0.285,0.020
'13:11.222',-0.285,0.025
'13:11.225',-0.275,0.045
'13:11.228',-0.260,0.045
'13:11.231',-0.260,0.045
'13:11.233',-0.255,0.025
'13:11.236',-0.245,0.040
'13:11.239',-0.230,0.055
'13:11.242',-0.225,0.100
'13:11.244',-0.255,0.150
'13:11.247',-0.285,0.170
'13:11.250',-0.315,0.150
'13:11.253',-0.305,0.090
'13:11.256',-0.280,0.010
'13:11.258',-0.250,-0.050
'13:11.261',-0.225,-0.065
'13:11.264',-0.240,-0.060
'13:11.267',-0.260,-0.045
'13:11.269',-0.250,-0.060
'13:11.272',-0.245,-0.050
'13:11.275',-0.225,-0.055
'13:11.278',-0.225,-0.085
'13:11.281',-0.240,-0.105
'13:11.283',-0.255,-0.130
'13:11.286',-0.250,-0.115
'13:11.289',-0.225,-0.095
'13:11.292',-0.210,-0.085
'13:11.294',-0.220,-0.100
'13:11.297',-0.225,-0.120
'13:11.300',-0.235,-0.130
'13:11.303',-0.235,-0.125
'13:11.306',-0.225,-0.110
'13:11.308',-0.210,-0.100
'13:11.311',-0.200,-0.120
'13:11.314',-0.205,-0.145
'13:11.317',-0.190,-0.155
'13:11.319',-0.170,-0.155
'13:11.322',-0.150,-0.145
'13:11.325',-0.125,-0.140
'13:11.328',-0.130,-0.185
'13:11.331',-0.150,-0.205
'13:11.333',-0.180,-0.230
'13:11.336',-0.175,-0.230
'13:11.339',-0.155,-0.205
'13:11.342',-0.120,-0.190
'13:11.344',-0.090,-0.175
'13:11.347',-0.080,-0.170
'13:11.350',-0.045,-0.135
'13:11.353',-0.055,-0.080
'13:11.356',-0.105,-0.030
'13:11.358',-0.180,-0.005
'13:11.361',-0.220,-0.080
'13:11.364',-0.215,-0.165
'13:11.367',-0.170,-0.270
'13:11.369',-0.150,-0.310
'13:11.372',-0.115,-0.300
'13:11.375',-0.100,-0.265
'13:11.378',-0.095,-0.245
'13:11.381',-0.105,-0.225
'13:11.383',-0.110,-0.225
'13:11.386',-0.120,-0.205
'13:11.389',-0.090,-0.185
'13:11.392',-0.075,-0.170
'13:11.394',-0.070,-0.175
'13:11.397',-0.080,-0.185
'13:11.400',-0.090,-0.165
'13:11.403',-0.115,-0.145
'13:11.406',-0.120,-0.120
'13:11.408',-0.130,-0.080
'13:11.411',-0.125,-0.075
'13:11.414',-0.140,-0.080
'13:11.417',-0.155,-0.075
'13:11.419',-0.175,-0.055
'13:11.422',-0.170,-0.025
'13:11.425',-0.175,0.005
'13:11.428',-0.165,0.005
'13:11.431',-0.185,0.005
'13:11.433',-0.205,-0.005
'13:11.436',-0.210,0.000
'13:11.439',-0.195,0.015
'13:11.442',-0.200,0.050
'13:11.444',-0.180,0.045
'13:11.447',-0.190,0.040
'13:11.450',-0.200,0.025
'13:11.453',-0.195,0.040
'13:11.456',-0.185,0.080
'13:11.458',-0.175,0.095
'13:11.461',-0.160,0.090
'13:11.464',-0.165,0.070
'13:11.467',-0.185,0.060
'13:11.469',-0.205,0.085
'13:11.472',-0.210,0.135
'13:11.475',-0.220,0.165
'13:11.478',-0.225,0.150
'13:11.481',-0.225,0.085
'13:11.483',-0.235,0.065
'13:11.486',-0.230,0.055
'13:11.489',-0.220,0.035
'13:11.492',-0.210,0.010
'13:11.494',-0.195,-0.020
'13:11.497',-0.190,-0.010
'13:11.500',-0.185,0.000
'13:11.503',-0.185,0.030
'13:11.506',-0.175,0.055
'13:11.508',-0.150,0.080
'13:11.511',-0.140,0.085
'13:11.514',-0.165,0.080
'13:11.517',-0.190,0.045
'13:11.519',-0.195,0.045
'13:11.522',-0.175,0.040
'13:11.525',-0.150,0.060
'13:11.528',-0.140,0.050
'13:11.531',-0.155,0.040
'13:11.533',-0.160,0.040
'13:11.536',-0.175,0.035
'13:11.539',-0.155,0.050
'13:11.542',-0.145,0.065
'13:11.544',-0.135,0.060
'13:11.547',-0.160,0.055
'13:11.550',-0.180,0.045
'13:11.553',-0.160,0.035
'13:11.556',-0.150,0.060
'13:11.558',-0.140,0.055
'13:11.561',-0.130,0.060
'13:11.564',-0.155,0.065
'13:11.567',-0.170,0.085
'13:11.569',-0.185,0.115
'13:11.572',-0.190,0.125
'13:11.575',-0.180,0.090
'13:11.578',-0.165,0.045
'13:11.581',-0.150,0.015
'13:11.583',-0.165,0.025
'13:11.586',-0.180,0.020
'13:11.589',-0.165,0.030
'13:11.592',-0.155,0.025
'13:11.594',-0.160,0.030
'13:11.597',-0.165,0.015
'13:11.600',-0.185,0.010
'13:11.603',-0.180,0.020
'13:11.606',-0.180,0.050
'13:11.608',-0.155,0.075
'13:11.611',-0.150,0.070
'13:11.614',-0.160,0.080
'13:11.617',-0.145,0.085
'13:11.619',-0.145,0.080
'13:11.622',-0.140,0.080
'13:11.625',-0.155,0.075
'13:11.628',-0.180,0.065
'13:11.631',-0.185,0.065
'13:11.633',-0.200,0.065
'13:11.636',-0.205,0.065
'13:11.639',-0.180,0.070
'13:11.642',-0.165,0.075
'13:11.644',-0.160,0.080
'13:11.647',-0.165,0.070
'13:11.650',-0.175,0.060
'13:11.653',-0.175,0.055
'13:11.656',-0.160,0.065
'13:11.658',-0.165,0.075
'13:11.661',-0.145,0.055
'13:11.664',-0.165,0.050
'13:11.667',-0.175,0.030
'13:11.669',-0.190,0.045
'13:11.672',-0.185,0.060
'13:11.675',-0.165,0.070
'13:11.678',-0.160,0.070
'13:11.681',-0.180,0.075
'13:11.683',-0.190,0.085
'13:11.686',-0.185,0.100
'13:11.689',-0.170,0.110
'13:11.692',-0.135,0.105
'13:11.694',-0.130,0.050
'13:11.697',-0.160,-0.015
'13:11.700',-0.190,-0.030
'13:11.703',-0.215,-0.015
'13:11.706',-0.200,0.020
'13:11.708',-0.170,0.075
'13:11.711',-0.145,0.065
'13:11.714',-0.125,0.055
'13:11.717',-0.140,0.030
'13:11.719',-0.165,0.015
'13:11.722',-0.185,0.035
'13:11.725',-0.190,0.065
'13:11.728',-0.190,0.065
'13:11.731',-0.185,0.060
'13:11.733',-0.195,0.055
'13:11.736',-0.200,0.055
'13:11.739',-0.190,0.075
'13:11.742',-0.180,0.095
'13:11.744',-0.160,0.105
'13:11.747',-0.160,0.115
'13:11.750',-0.180,0.120
'13:11.753',-0.185,0.110
'13:11.756',-0.185,0.100
'13:11.758',-0.175,0.080
'13:11.761',-0.175,0.070
'13:11.764',-0.175,0.075
'13:11.767',-0.195,0.070
'13:11.769',-0.210,0.090
'13:11.772',-0.185,0.115
'13:11.775',-0.190,0.135
'13:11.778',-0.175,0.120
'13:11.781',-0.180,0.095
'13:11.783',-0.180,0.060
'13:11.786',-0.185,0.070
'13:11.789',-0.160,0.085
'13:11.792',-0.160,0.100
'13:11.794',-0.155,0.095
'13:11.797',-0.165,0.085
'13:11.800',-0.180,0.095
'13:11.803',-0.190,0.125
'13:11.806',-0.185,0.170
'13:11.808',-0.160,0.190
'13:11.811',-0.160,0.150
'13:11.814',-0.150,0.085
'13:11.817',-0.145,0.040
'13:11.819',-0.145,0.045
'13:11.822',-0.155,0.110
'13:11.825',-0.155,0.180
'13:11.828',-0.170,0.225
'13:11.831',-0.175,0.160
'13:11.833',-0.170,0.075
'13:11.836',-0.160,0.015
'13:11.839',-0.155,-0.010
'13:11.842',-0.135,0.000
'13:11.844',-0.160,0.015
'13:11.847',-0.175,0.020
'13:11.850',-0.190,0.035
'13:11.853',-0.200,0.045
'13:11.856',-0.175,0.055
'13:11.858',-0.145,0.065
'13:11.861',-0.140,0.050
'13:11.864',-0.155,0.050
'13:11.867',-0.170,0.035
'13:11.869',-0.175,0.025
'13:11.872',-0.160,0.050
'13:11.875',-0.160,0.075
'13:11.878',-0.165,0.070
'13:11.881',-0.165,0.060
'13:11.883',-0.165,0.070
'13:11.886',-0.165,0.100
'13:11.889',-0.155,0.135
'13:11.892',-0.145,0.180
'13:11.894',-0.130,0.170
'13:11.897',-0.125,0.105
'13:11.900',-0.160,0.035
'13:11.903',-0.180,0.005
'13:11.906',-0.200,0.000
'13:11.908',-0.190,0.030
'13:11.911',-0.180,0.045
'13:11.914',-0.180,0.075
'13:11.917',-0.190,0.090
'13:11.919',-0.185,0.130
'13:11.922',-0.175,0.140
'13:11.925',-0.150,0.100
'13:11.928',-0.150,0.070
'13:11.931',-0.165,0.060
'13:11.933',-0.175,0.055
'13:11.936',-0.185,0.085
'13:11.939',-0.180,0.105
'13:11.942',-0.160,0.110
'13:11.944',-0.140,0.090
'13:11.947',-0.125,0.060
'13:11.950',-0.145,0.040
'13:11.953',-0.155,0.040
'13:11.956',-0.155,0.055
'13:11.958',-0.185,0.070
'13:11.961',-0.185,0.075
'13:11.964',-0.175,0.075
'13:11.967',-0.170,0.100
'13:11.969',-0.160,0.125
'13:11.972',-0.160,0.165
'13:11.975',-0.145,0.175
'13:11.978',-0.130,0.140
'13:11.981',-0.140,0.075
'13:11.983',-0.150,0.025
'13:11.986',-0.160,0.010
'13:11.989',-0.180,0.015
'13:11.992',-0.185,0.035
'13:11.994',-0.170,0.035
'13:11.997',-0.170,0.040
'13:12.000',-0.165,0.055
'13:12.003',-0.175,0.065
'13:12.006',-0.160,0.100
'13:12.008',-0.145,0.120
'13:12.011',-0.135,0.110
'13:12.014',-0.145,0.085
'13:12.017',-0.185,0.060
'13:12.019',-0.185,0.065
'13:12.022',-0.180,0.095
'13:12.025',-0.170,0.100
'13:12.028',-0.155,0.070
'13:12.031',-0.155,0.045
'13:12.033',-0.170,0.035
'13:12.036',-0.170,0.045
'13:12.039',-0.155,0.065
'13:12.042',-0.150,0.105
'13:12.044',-0.155,0.115
'13:12.047',-0.165,0.120
'13:12.050',-0.175,0.120
'13:12.053',-0.185,0.100
'13:12.056',-0.165,0.090
'13:12.058',-0.150,0.085
'13:12.061',-0.155,0.065
'13:12.064',-0.155,0.090
'13:12.067',-0.170,0.110
'13:12.069',-0.170,0.095
'13:12.072',-0.160,0.075
'13:12.075',-0.145,0.070
'13:12.078',-0.135,0.060
'13:12.081',-0.125,0.065
'13:12.083',-0.125,0.055
'13:12.086',-0.150,0.065
'13:12.089',-0.150,0.080
'13:12.092',-0.150,0.095
'13:12.094',-0.145,0.090
'13:12.097',-0.155,0.090
'13:12.100',-0.175,0.070
'13:12.103',-0.180,0.080
'13:12.106',-0.170,0.110
'13:12.108',-0.145,0.130
'13:12.111',-0.120,0.110
'13:12.114',-0.130,0.080
'13:12.117',-0.140,0.045
'13:12.119',-0.145,0.040
'13:12.122',-0.130,0.050
'13:12.125',-0.135,0.055
'13:12.128',-0.140,0.055
'13:12.131',-0.135,0.050
'13:12.133',-0.150,0.030
'13:12.136',-0.140,0.045
'13:12.139',-0.135,0.055
'13:12.142',-0.125,0.080
'13:12.144',-0.115,0.080
'13:12.147',-0.120,0.075
'13:12.150',-0.125,0.060
'13:12.153',-0.125,0.070
'13:12.156',-0.115,0.090
'13:12.158',-0.120,0.100
'13:12.161',-0.105,0.095
'13:12.164',-0.120,0.080
'13:12.167',-0.150,0.070
'13:12.169',-0.155,0.075
'13:12.172',-0.135,0.085
'13:12.175',-0.115,0.085
'13:12.178',-0.115,0.070
'13:12.181',-0.135,0.075
'13:12.183',-0.150,0.060
'13:12.186',-0.150,0.070
'13:12.189',-0.135,0.085
'13:12.192',-0.130,0.115
'13:12.194',-0.135,0.110
'13:12.197',-0.140,0.105
'13:12.200',-0.120,0.070
'13:12.203',-0.125,0.065
'13:12.206',-0.115,0.070
'13:12.208',-0.105,0.050
'13:12.211',-0.080,0.040
'13:12.214',-0.035,0.030
'13:12.217',-0.005,0.020
'13:12.219',0.075,0.015
'13:12.222',0.190,0.015
'13:12.225',0.315,0.000
'13:12.228',0.450,-0.020
'13:12.231',0.605,-0.090
'13:12.233',0.760,-0.170
'13:12.236',0.935,-0.230
'13:12.239',1.120,-0.240
'13:12.242',1.310,-0.195
'13:12.244',1.430,-0.145
'13:12.247',1.460,-0.100
'13:12.250',1.335,-0.075
'13:12.253',1.085,-0.045
'13:12.256',0.800,0.000
'13:12.258',0.535,0.040
'13:12.261',0.290,0.065
'13:12.264',0.025,0.070
'13:12.267',-0.165,0.055
'13:12.269',-0.255,0.080
'13:12.272',-0.230,0.085
'13:12.275',-0.155,0.050
'13:12.278',-0.095,0.025
'13:12.281',-0.095,0.010
'13:12.283',-0.145,0.025
'13:12.286',-0.170,0.030
'13:12.289',-0.155,0.055
'13:12.292',-0.145,0.070
'13:12.294',-0.145,0.065
'13:12.297',-0.195,0.050
'13:12.300',-0.230,0.060
'13:12.303',-0.235,0.065
'13:12.306',-0.235,0.090
'13:12.308',-0.230,0.100
'13:12.311',-0.225,0.095
'13:12.314',-0.245,0.085
'13:12.317',-0.255,0.080
'13:12.319',-0.275,0.095
'13:12.322',-0.255,0.120
'13:12.325',-0.255,0.145
'13:12.328',-0.245,0.145
'13:12.331',-0.245,0.160
'13:12.333',-0.260,0.135
'13:12.336',-0.240,0.095
'13:12.339',-0.230,0.090
'13:12.342',-0.215,0.085
'13:12.344',-0.215,0.085
'13:12.347',-0.225,0.075
'13:12.350',-0.225,0.065
'13:12.353',-0.225,0.090
'13:12.356',-0.210,0.105
'13:12.358',-0.180,0.120
'13:12.361',-0.170,0.135
'13:12.364',-0.170,0.140
'13:12.367',-0.205,0.125
'13:12.369',-0.230,0.105
'13:12.372',-0.235,0.080
'13:12.375',-0.220,0.075
'13:12.378',-0.210,0.055
'13:12.381',-0.220,0.060
'13:12.383',-0.215,0.055
'13:12.386',-0.230,0.055
'13:12.389',-0.200,0.075
'13:12.392',-0.180,0.090
'13:12.394',-0.190,0.090
'13:12.397',-0.210,0.095
'13:12.400',-0.200,0.090
'13:12.403',-0.205,0.085
'13:12.406',-0.190,0.090
'13:12.408',-0.175,0.075
'13:12.411',-0.180,0.055
'13:12.414',-0.185,0.055
'13:12.417',-0.215,0.050
'13:12.419',-0.235,0.055
'13:12.422',-0.230,0.060
'13:12.425',-0.225,0.070
'13:12.428',-0.205,0.065
'13:12.431',-0.205,0.055
'13:12.433',-0.220,0.040
'13:12.436',-0.230,0.030
'13:12.439',-0.205,0.030
'13:12.442',-0.170,0.035
'13:12.444',-0.175,0.025
'13:12.447',-0.175,0.010
'13:12.450',-0.185,0.005
'13:12.453',-0.185,0.010
'13:12.456',-0.160,0.020
'13:12.458',-0.120,0.025
'13:12.461',-0.105,0.015
'13:12.464',-0.090,-0.005
'13:12.467',-0.105,-0.025
'13:12.469',-0.105,-0.035
'13:12.472',-0.080,-0.025
'13:12.475',-0.050,-0.025
'13:12.478',-0.030,-0.015
'13:12.481',-0.040,-0.035
'13:12.483',-0.045,-0.045
'13:12.486',-0.045,-0.060
'13:12.489',-0.015,-0.035
'13:12.492',0.000,-0.035
'13:12.494',0.015,-0.040
'13:12.497',0.000,-0.050
'13:12.500',0.005,-0.060
'13:12.503',0.010,-0.060
'13:12.506',0.035,-0.045
'13:12.508',0.065,-0.030
'13:12.511',0.065,-0.025
'13:12.514',0.065,-0.040
'13:12.517',0.080,-0.045
'13:12.519',0.085,-0.035
'13:12.522',0.100,-0.050
'13:12.525',0.105,-0.025
'13:12.528',0.070,-0.040
'13:12.531',0.045,-0.045
'13:12.533',-0.005,-0.010
'13:12.536',-0.060,0.045
'13:12.539',-0.090,0.070
'13:12.542',-0.080,0.025
'13:12.544',-0.060,-0.045
'13:12.547',-0.050,-0.075
'13:12.550',-0.075,-0.065
'13:12.553',-0.080,-0.010
'13:12.556',-0.105,0.040
'13:12.558',-0.090,0.085
'13:12.561',-0.100,0.095
'13:12.564',-0.120,0.065
'13:12.567',-0.135,0.025
'13:12.569',-0.120,-0.005
'13:12.572',-0.120,-0.005
'13:12.575',-0.115,0.015
'13:12.578',-0.120,0.035
'13:12.581',-0.130,0.040
'13:12.583',-0.155,0.035
'13:12.586',-0.170,0.060
'13:12.589',-0.175,0.075
'13:12.592',-0.155,0.100
'13:12.594',-0.145,0.090
'13:12.597',-0.135,0.085
'13:12.600',-0.145,0.085
'13:12.603',-0.160,0.075
'13:12.606',-0.160,0.105
'13:12.608',-0.175,0.110
'13:12.611',-0.170,0.115
'13:12.614',-0.170,0.100
'13:12.617',-0.170,0.095
'13:12.619',-0.165,0.090
'13:12.622',-0.160,0.105
'13:12.625',-0.150,0.105
'13:12.628',-0.140,0.110
'13:12.631',-0.135,0.080
'13:12.633',-0.135,0.070
'13:12.636',-0.150,0.060
'13:12.639',-0.145,0.085
'13:12.642',-0.140,0.090
'13:12.644',-0.145,0.085
'13:12.647',-0.145,0.070
'13:12.650',-0.150,0.065
'13:12.653',-0.150,0.065
'13:12.656',-0.120,0.075
'13:12.658',-0.110,0.095
'13:12.661',-0.110,0.125
'13:12.664',-0.120,0.115
'13:12.667',-0.150,0.085
'13:12.669',-0.150,0.095
'13:12.672',-0.145,0.130
'13:12.675',-0.115,0.115
'13:12.678',-0.100,0.065
'13:12.681',-0.130,0.010
'13:12.683',-0.195,0.000
'13:12.686',-0.200,0.005
'13:12.689',-0.170,0.040
'13:12.692',-0.155,0.045
'13:12.694',-0.145,0.035
'13:12.697',-0.155,0.015
'13:12.700',-0.160,0.000
'13:12.703',-0.165,0.010
'13:12.706',-0.145,0.025
'13:12.708',-0.140,0.030
'13:12.711',-0.140,0.030
'13:12.714',-0.140,0.025
'13:12.717',-0.160,0.025
'13:12.719',-0.175,0.025
'13:12.722',-0.165,0.055
'13:12.725',-0.160,0.105
'13:12.728',-0.150,0.140
'13:12.731',-0.160,0.165
'13:12.733',-0.165,0.155
'13:12.736',-0.165,0.095
'13:12.739',-0.165,0.030
'13:12.742',-0.145,0.000
'13:12.744',-0.145,-0.015
'13:12.747',-0.155,-0.025
'13:12.750',-0.180,-0.020
'13:12.753',-0.185,0.010
'13:12.756',-0.180,0.030
'13:12.758',-0.170,0.045
'13:12.761',-0.160,0.030
'13:12.764',-0.165,0.025
'13:12.767',-0.175,0.010
'13:12.769',-0.185,0.015
'13:12.772',-0.165,0.005
'13:12.775',-0.160,0.020
'13:12.778',-0.170,0.020
'13:12.781',-0.185,0.010
'13:12.783',-0.200,0.035
'13:12.786',-0.190,0.035
'13:12.789',-0.165,0.050
'13:12.792',-0.160,0.065
'13:12.794',-0.170,0.060
'13:12.797',-0.185,0.060
'13:12.800',-0.180,0.075
'13:12.803',-0.180,0.090
'13:12.806',-0.155,0.085
'13:12.808',-0.150,0.070
'13:12.811',-0.150,0.025
'13:12.814',-0.175,0.000
'13:12.817',-0.195,-0.015
'13:12.819',-0.195,-0.005
'13:12.822',-0.140,0.000
'13:12.825',-0.075,0.010
'13:12.828',-0.010,0.010
'13:12.831',0.070,0.025
'13:12.833',0.185,0.010
'13:12.836',0.320,-0.030
'13:12.839',0.500,-0.090
'13:12.842',0.730,-0.175
'13:12.844',0.970,-0.205
'13:12.847',1.195,-0.165
'13:12.850',1.355,-0.035
'13:12.853',1.340,0.070
'13:12.856',1.155,0.105
'13:12.858',0.855,0.125
'13:12.861',0.485,0.160
'13:12.864',0.130,0.200
'13:12.867',-0.170,0.230
'13:12.869',-0.380,0.245
'13:12.872',-0.425,0.215
'13:12.875',-0.365,0.185
'13:12.878',-0.280,0.115
'13:12.881',-0.255,0.060
'13:12.883',-0.245,0.030
'13:12.886',-0.250,0.015
'13:12.889',-0.250,0.040
'13:12.892',-0.240,0.065
'13:12.894',-0.245,0.060
'13:12.897',-0.265,0.065
'13:12.900',-0.285,0.055
'13:12.903',-0.315,0.070
'13:12.906',-0.310,0.085
'13:12.908',-0.290,0.095
'13:12.911',-0.280,0.075
'13:12.914',-0.290,0.035
'13:12.917',-0.310,0.015
'13:12.919',-0.320,0.010
'13:12.922',-0.305,0.020
'13:12.925',-0.290,0.045
'13:12.928',-0.305,0.045
'13:12.931',-0.315,0.040
'13:12.933',-0.325,0.040
'13:12.936',-0.325,0.055
'13:12.939',-0.330,0.060
'13:12.942',-0.325,0.070
'13:12.944',-0.315,0.050
'13:12.947',-0.310,0.000
'13:12.950',-0.345,-0.030
'13:12.953',-0.330,-0.020
'13:12.956',-0.325,0.025
'13:12.958',-0.310,0.075
'13:12.961',-0.310,0.080
'13:12.964',-0.325,0.045
'13:12.967',-0.315,-0.005
'13:12.969',-0.320,-0.055
'13:12.972',-0.305,-0.065
'13:12.975',-0.305,-0.070
'13:12.978',-0.305,-0.065
'13:12.981',-0.300,-0.065
'13:12.983',-0.310,-0.055
'13:12.986',-0.305,-0.045
'13:12.989',-0.300,-0.035
'13:12.992',-0.300,-0.020
'13:12.994',-0.325,-0.015
'13:12.997',-0.350,-0.035
'13:13.000',-0.375,-0.045
'13:13.003',-0.380,-0.025
'13:13.006',-0.365,-0.020
'13:13.008',-0.335,-0.015
'13:13.011',-0.300,-0.020
'13:13.014',-0.295,-0.050
'13:13.017',-0.300,-0.065
'13:13.019',-0.315,-0.075
'13:13.022',-0.295,-0.050
'13:13.025',-0.265,-0.055
'13:13.028',-0.260,-0.055
'13:13.031',-0.255,-0.085
'13:13.033',-0.255,-0.115
'13:13.036',-0.245,-0.110
'13:13.039',-0.235,-0.105
'13:13.042',-0.220,-0.105
'13:13.044',-0.220,-0.105
'13:13.047',-0.210,-0.130
'13:13.050',-0.210,-0.145
'13:13.053',-0.200,-0.145
'13:13.056',-0.205,-0.150
'13:13.058',-0.200,-0.145
'13:13.061',-0.185,-0.175
'13:13.064',-0.175,-0.210
'13:13.067',-0.175,-0.240
'13:13.069',-0.150,-0.255
'13:13.072',-0.140,-0.240
'13:13.075',-0.135,-0.215
'13:13.078',-0.160,-0.230
'13:13.081',-0.180,-0.235
'13:13.083',-0.195,-0.245
'13:13.086',-0.190,-0.220
'13:13.089',-0.165,-0.235
'13:13.092',-0.140,-0.255
'13:13.094',-0.130,-0.290
'13:13.097',-0.140,-0.285
'13:13.100',-0.165,-0.265
'13:13.103',-0.160,-0.215
'13:13.106',-0.145,-0.165
'13:13.108',-0.130,-0.140
'13:13.111',-0.125,-0.165
'13:13.114',-0.135,-0.225
'13:13.117',-0.180,-0.235
'13:13.119',-0.200,-0.205
'13:13.122',-0.200,-0.155
'13:13.125',-0.180,-0.125
'13:13.128',-0.185,-0.105
'13:13.131',-0.200,-0.100
'13:13.133',-0.230,-0.095
'13:13.136',-0.240,-0.075
'13:13.139',-0.225,-0.040
'13:13.142',-0.220,0.005
'13:13.144',-0.215,0.005
'13:13.147',-0.240,0.025
'13:13.150',-0.265,0.015
'13:13.153',-0.270,0.035
'13:13.156',-0.255,0.055
'13:13.158',-0.250,0.070
'13:13.161',-0.255,0.075
'13:13.164',-0.270,0.070
'13:13.167',-0.275,0.045
'13:13.169',-0.285,0.055
'13:13.172',-0.285,0.070
'13:13.175',-0.265,0.080
'13:13.178',-0.280,0.090
'13:13.181',-0.270,0.075
'13:13.183',-0.280,0.080
'13:13.186',-0.275,0.085
'13:13.189',-0.270,0.100
'13:13.192',-0.250,0.115
'13:13.194',-0.270,0.120
'13:13.197',-0.280,0.110
'13:13.200',-0.295,0.100
'13:13.203',-0.295,0.095
'13:13.206',-0.290,0.095
'13:13.208',-0.280,0.110
'13:13.211',-0.270,0.105
'13:13.214',-0.280,0.095
'13:13.217',-0.280,0.085
'13:13.219',-0.260,0.100
'13:13.222',-0.230,0.110
'13:13.225',-0.205,0.130
'13:13.228',-0.215,0.125
'13:13.231',-0.250,0.095
'13:13.233',-0.285,0.065
'13:13.236',-0.315,0.065
'13:13.239',-0.290,0.070
'13:13.242',-0.285,0.075
'13:13.244',-0.265,0.075
'13:13.247',-0.255,0.070
'13:13.250',-0.265,0.055
'13:13.253',-0.275,0.045
'13:13.256',-0.260,0.070
'13:13.258',-0.240,0.070
