'Elapsed time','MLII','V1'
'hh:mm:ss.mmm','mV','mV'
'5:00.000',-0.420,-0.035
'5:00.003',-0.405,-0.005
'5:00.006',-0.395,0.020
'5:00.008',-0.405,0.025
'5:00.011',-0.395,0.015
'5:00.014',-0.390,-0.015
'5:00.017',-0.355,-0.010
'5:00.019',-0.340,0.000
'5:00.022',-0.325,-0.005
'5:00.025',-0.350,0.000
'5:00.028',-0.380,-0.030
'5:00.031',-0.410,-0.035
'5:00.033',-0.420,-0.045
'5:00.036',-0.395,-0.045
'5:00.039',-0.355,-0.025
'5:00.042',-0.340,-0.010
'5:00.044',-0.365,-0.015
'5:00.047',-0.400,-0.020
'5:00.050',-0.425,-0.025
'5:00.053',-0.420,-0.015
'5:00.056',-0.410,-0.020
'5:00.058',-0.410,-0.020
'5:00.061',-0.370,-0.050
'5:00.064',-0.360,-0.040
'5:00.067',-0.350,-0.040
'5:00.069',-0.330,-0.025
'5:00.072',-0.320,-0.010
'5:00.075',-0.320,-0.005
'5:00.078',-0.345,-0.020
'5:00.081',-0.385,-0.030
'5:00.083',-0.420,-0.010
'5:00.086',-0.425,0.000
'5:00.089',-0.405,-0.010
'5:00.092',-0.400,-0.015
'5:00.094',-0.385,-0.030
'5:00.097',-0.380,-0.030
'5:00.100',-0.370,-0.045
'5:00.103',-0.340,-0.020
'5:00.106',-0.320,-0.015
'5:00.108',-0.305,-0.020
'5:00.111',-0.310,-0.040
'5:00.114',-0.320,-0.040
'5:00.117',-0.335,-0.020
'5:00.119',-0.315,-0.010
'5:00.122',-0.325,0.005
'5:00.125',-0.355,-0.030
'5:00.128',-0.370,-0.040
'5:00.131',-0.375,-0.050
'5:00.133',-0.345,-0.030
'5:00.136',-0.295,-0.020
'5:00.139',-0.275,-0.015
'5:00.142',-0.310,-0.020
'5:00.144',-0.345,-0.055
'5:00.147',-0.410,-0.060
'5:00.150',-0.425,-0.055
'5:00.153',-0.405,-0.035
'5:00.156',-0.345,-0.015
'5:00.158',-0.300,-0.020
'5:00.161',-0.290,-0.015
'5:00.164',-0.320,-0.030
'5:00.167',-0.345,-0.035
'5:00.169',-0.365,-0.025
'5:00.172',-0.355,-0.015
'5:00.175',-0.345,-0.035
'5:00.178',-0.345,-0.055
'5:00.181',-0.360,-0.060
'5:00.183',-0.360,-0.065
'5:00.186',-0.340,-0.040
'5:00.189',-0.320,-0.040
'5:00.192',-0.320,-0.060
'5:00.194',-0.330,-0.075
'5:00.197',-0.335,-0.065
'5:00.200',-0.330,-0.055
'5:00.203',-0.300,-0.035
'5:00.206',-0.280,-0.035
'5:00.208',-0.280,-0.035
'5:00.211',-0.270,-0.050
'5:00.214',-0.290,-0.065
'5:00.217',-0.305,-0.065
'5:00.219',-0.330,-0.060
'5:00.222',-0.300,-0.050
'5:00.225',-0.270,-0.070
'5:00.228',-0.275,-0.075
'5:00.231',-0.275,-0.090
'5:00.233',-0.280,-0.070
'5:00.236',-0.275,-0.050
'5:00.239',-0.295,-0.055
'5:00.242',-0.305,-0.075
'5:00.244',-0.325,-0.095
'5:00.247',-0.320,-0.095
'5:00.250',-0.285,-0.075
'5:00.253',-0.205,-0.075
'5:00.256',-0.165,-0.060
'5:00.258',-0.165,-0.075
'5:00.261',-0.200,-0.085
'5:00.264',-0.250,-0.085
'5:00.267',-0.305,-0.065
'5:00.269',-0.290,-0.080
'5:00.272',-0.280,-0.070
'5:00.275',-0.245,-0.080
'5:00.278',-0.225,-0.080
'5:00.281',-0.210,-0.075
'5:00.283',-0.180,-0.070
'5:00.286',-0.175,-0.075
'5:00.289',-0.175,-0.075
'5:00.292',-0.195,-0.080
'5:00.294',-0.185,-0.100
'5:00.297',-0.185,-0.115
'5:00.300',-0.160,-0.110
'5:00.303',-0.130,-0.080
'5:00.306',-0.090,-0.065
'5:00.308',-0.110,-0.085
'5:00.311',-0.170,-0.095
'5:00.314',-0.240,-0.110
'5:00.317',-0.290,-0.115
'5:00.319',-0.270,-0.090
'5:00.322',-0.220,-0.075
'5:00.325',-0.200,-0.085
'5:00.328',-0.215,-0.100
'5:00.331',-0.275,-0.105
'5:00.333',-0.300,-0.120
'5:00.336',-0.300,-0.095
'5:00.339',-0.270,-0.095
'5:00.342',-0.270,-0.090
'5:00.344',-0.265,-0.120
'5:00.347',-0.285,-0.125
'5:00.350',-0.265,-0.120
'5:00.353',-0.270,-0.115
'5:00.356',-0.235,-0.105
'5:00.358',-0.225,-0.115
'5:00.361',-0.230,-0.125
'5:00.364',-0.230,-0.135
'5:00.367',-0.240,-0.135
'5:00.369',-0.245,-0.120
'5:00.372',-0.225,-0.110
'5:00.375',-0.220,-0.115
'5:00.378',-0.190,-0.135
'5:00.381',-0.200,-0.140
'5:00.383',-0.185,-0.130
'5:00.386',-0.195,-0.120
'5:00.389',-0.245,-0.120
'5:00.392',-0.275,-0.115
'5:00.394',-0.325,-0.115
'5:00.397',-0.315,-0.105
'5:00.400',-0.275,-0.100
'5:00.403',-0.250,-0.105
'5:00.406',-0.225,-0.130
'5:00.408',-0.205,-0.205
'5:00.411',-0.145,-0.315
'5:00.414',-0.060,-0.405
'5:00.417',0.075,-0.515
'5:00.419',0.210,-0.620
'5:00.422',0.325,-0.720
'5:00.425',0.420,-0.810
'5:00.428',0.510,-0.920
'5:00.431',0.630,-0.990
'5:00.433',0.795,-1.025
'5:00.436',1.000,-1.020
'5:00.439',1.180,-1.015
'5:00.442',1.315,-1.020
'5:00.444',1.455,-1.010
'5:00.447',1.610,-1.005
'5:00.450',1.745,-0.960
'5:00.453',1.810,-0.950
'5:00.456',1.790,-0.930
'5:00.458',1.625,-0.935
'5:00.461',1.320,-0.915
'5:00.464',0.930,-0.890
'5:00.467',0.610,-0.850
'5:00.469',0.435,-0.795
'5:00.472',0.345,-0.765
'5:00.475',0.295,-0.725
'5:00.478',0.215,-0.670
'5:00.481',0.150,-0.585
'5:00.483',0.130,-0.520
'5:00.486',0.145,-0.435
'5:00.489',0.155,-0.390
'5:00.492',0.160,-0.360
'5:00.494',0.120,-0.315
'5:00.497',0.065,-0.260
'5:00.500',0.030,-0.200
'5:00.503',-0.015,-0.125
'5:00.506',-0.065,-0.075
'5:00.508',-0.100,-0.045
'5:00.511',-0.140,-0.030
'5:00.514',-0.180,-0.005
'5:00.517',-0.195,0.050
'5:00.519',-0.210,0.100
'5:00.522',-0.215,0.175
'5:00.525',-0.230,0.195
'5:00.528',-0.270,0.195
'5:00.531',-0.330,0.190
'5:00.533',-0.380,0.200
'5:00.536',-0.390,0.220
'5:00.539',-0.405,0.235
'5:00.542',-0.380,0.210
'5:00.544',-0.365,0.220
'5:00.547',-0.335,0.205
'5:00.550',-0.325,0.235
'5:00.553',-0.345,0.255
'5:00.556',-0.390,0.280
'5:00.558',-0.430,0.290
'5:00.561',-0.450,0.275
'5:00.564',-0.450,0.275
'5:00.567',-0.465,0.280
'5:00.569',-0.455,0.310
'5:00.572',-0.425,0.315
'5:00.575',-0.420,0.315
'5:00.578',-0.400,0.325
'5:00.581',-0.390,0.325
'5:00.583',-0.390,0.350
'5:00.586',-0.385,0.370
'5:00.589',-0.365,0.400
'5:00.592',-0.380,0.400
'5:00.594',-0.395,0.395
'5:00.597',-0.405,0.395
'5:00.600',-0.405,0.415
'5:00.603',-0.400,0.435
'5:00.606',-0.400,0.460
'5:00.608',-0.420,0.485
'5:00.611',-0.445,0.490
'5:00.614',-0.480,0.490
'5:00.617',-0.480,0.520
'5:00.619',-0.465,0.550
'5:00.622',-0.430,0.565
'5:00.625',-0.430,0.565
'5:00.628',-0.430,0.555
'5:00.631',-0.435,0.575
'5:00.633',-0.465,0.600
'5:00.636',-0.455,0.625
'5:00.639',-0.470,0.625
'5:00.642',-0.505,0.620
'5:00.644',-0.515,0.615
'5:00.647',-0.510,0.620
'5:00.650',-0.505,0.645
'5:00.653',-0.495,0.665
'5:00.656',-0.485,0.685
'5:00.658',-0.500,0.670
'5:00.661',-0.510,0.670
'5:00.664',-0.520,0.655
'5:00.667',-0.490,0.685
'5:00.669',-0.465,0.685
'5:00.672',-0.480,0.700
'5:00.675',-0.510,0.685
'5:00.678',-0.550,0.670
'5:00.681',-0.570,0.640
'5:00.683',-0.575,0.650
'5:00.686',-0.560,0.655
'5:00.689',-0.520,0.650
'5:00.692',-0.510,0.605
'5:00.694',-0.525,0.570
'5:00.697',-0.525,0.550
'5:00.700',-0.510,0.530
'5:00.703',-0.485,0.530
'5:00.706',-0.455,0.515
'5:00.708',-0.445,0.495
'5:00.711',-0.455,0.465
'5:00.714',-0.450,0.425
'5:00.717',-0.425,0.410
'5:00.719',-0.385,0.390
'5:00.722',-0.355,0.395
'5:00.725',-0.340,0.365
'5:00.728',-0.340,0.340
'5:00.731',-0.355,0.315
'5:00.733',-0.350,0.285
'5:00.736',-0.315,0.280
'5:00.739',-0.275,0.275
'5:00.742',-0.235,0.235
'5:00.744',-0.220,0.205
'5:00.747',-0.210,0.180
'5:00.750',-0.190,0.170
'5:00.753',-0.165,0.185
'5:00.756',-0.145,0.175
'5:00.758',-0.130,0.160
'5:00.761',-0.125,0.130
'5:00.764',-0.145,0.120
'5:00.767',-0.130,0.110
'5:00.769',-0.130,0.110
'5:00.772',-0.115,0.120
'5:00.775',-0.115,0.105
'5:00.778',-0.130,0.080
'5:00.781',-0.135,0.080
'5:00.783',-0.125,0.085
'5:00.786',-0.100,0.095
'5:00.789',-0.090,0.105
'5:00.792',-0.100,0.085
'5:00.794',-0.115,0.070
'5:00.797',-0.130,0.060
'5:00.800',-0.120,0.075
'5:00.803',-0.110,0.075
'5:00.806',-0.100,0.110
'5:00.808',-0.095,0.090
'5:00.811',-0.105,0.095
'5:00.814',-0.130,0.090
'5:00.817',-0.150,0.095
'5:00.819',-0.145,0.095
'5:00.822',-0.145,0.095
'5:00.825',-0.140,0.095
'5:00.828',-0.140,0.090
'5:00.831',-0.150,0.070
'5:00.833',-0.145,0.095
'5:00.836',-0.140,0.110
'5:00.839',-0.140,0.120
'5:00.842',-0.140,0.120
'5:00.844',-0.145,0.105
'5:00.847',-0.160,0.095
'5:00.850',-0.150,0.115
'5:00.853',-0.145,0.115
'5:00.856',-0.130,0.150
'5:00.858',-0.140,0.135
'5:00.861',-0.175,0.115
'5:00.864',-0.175,0.115
'5:00.867',-0.175,0.140
'5:00.869',-0.160,0.140
'5:00.872',-0.125,0.145
'5:00.875',-0.130,0.145
'5:00.878',-0.145,0.140
'5:00.881',-0.185,0.135
'5:00.883',-0.180,0.140
'5:00.886',-0.175,0.150
'5:00.889',-0.155,0.160
'5:00.892',-0.170,0.160
'5:00.894',-0.170,0.145
'5:00.897',-0.195,0.125
'5:00.900',-0.175,0.130
'5:00.903',-0.160,0.145
'5:00.906',-0.160,0.165
'5:00.908',-0.150,0.160
'5:00.911',-0.170,0.125
'5:00.914',-0.180,0.130
'5:00.917',-0.165,0.125
'5:00.919',-0.150,0.140
'5:00.922',-0.155,0.135
'5:00.925',-0.170,0.140
'5:00.928',-0.185,0.125
'5:00.931',-0.200,0.120
'5:00.933',-0.190,0.125
'5:00.936',-0.185,0.150
'5:00.939',-0.160,0.145
'5:00.942',-0.150,0.130
'5:00.944',-0.170,0.120
'5:00.947',-0.180,0.115
'5:00.950',-0.170,0.110
'5:00.953',-0.170,0.125
'5:00.956',-0.180,0.145
'5:00.958',-0.175,0.125
'5:00.961',-0.170,0.125
'5:00.964',-0.185,0.100
'5:00.967',-0.185,0.095
'5:00.969',-0.190,0.110
'5:00.972',-0.180,0.110
'5:00.975',-0.185,0.105
'5:00.978',-0.190,0.105
'5:00.981',-0.205,0.085
'5:00.983',-0.205,0.100
'5:00.986',-0.190,0.125
'5:00.989',-0.175,0.110
'5:00.992',-0.180,0.105
'5:00.994',-0.195,0.090
'5:00.997',-0.215,0.090
'5:01.000',-0.210,0.075
'5:01.003',-0.200,0.105
'5:01.006',-0.195,0.120
'5:01.008',-0.175,0.105
'5:01.011',-0.200,0.075
'5:01.014',-0.210,0.080
'5:01.017',-0.210,0.065
'5:01.019',-0.190,0.090
'5:01.022',-0.170,0.100
'5:01.025',-0.165,0.085
'5:01.028',-0.165,0.080
'5:01.031',-0.150,0.080
'5:01.033',-0.155,0.065
'5:01.036',-0.150,0.095
'5:01.039',-0.150,0.110
'5:01.042',-0.165,0.105
'5:01.044',-0.175,0.080
'5:01.047',-0.175,0.080
'5:01.050',-0.175,0.105
'5:01.053',-0.145,0.100
'5:01.056',-0.140,0.115
'5:01.058',-0.135,0.085
'5:01.061',-0.145,0.065
'5:01.064',-0.135,0.055
'5:01.067',-0.135,0.060
'5:01.069',-0.130,0.070
'5:01.072',-0.115,0.070
'5:01.075',-0.120,0.065
'5:01.078',-0.145,0.045
'5:01.081',-0.155,0.035
'5:01.083',-0.140,0.045
'5:01.086',-0.125,0.070
'5:01.089',-0.105,0.080
'5:01.092',-0.125,0.065
'5:01.094',-0.135,0.035
'5:01.097',-0.140,0.040
'5:01.100',-0.170,0.055
'5:01.103',-0.155,0.065
'5:01.106',-0.145,0.070
'5:01.108',-0.150,0.070
'5:01.111',-0.170,0.045
'5:01.114',-0.210,0.035
'5:01.117',-0.220,0.035
'5:01.119',-0.220,0.045
'5:01.122',-0.210,0.050
'5:01.125',-0.205,0.040
'5:01.128',-0.215,0.020
'5:01.131',-0.210,0.025
'5:01.133',-0.190,0.050
'5:01.136',-0.190,0.060
'5:01.139',-0.185,0.080
'5:01.142',-0.195,0.060
'5:01.144',-0.205,0.030
'5:01.147',-0.215,0.025
'5:01.150',-0.225,0.035
'5:01.153',-0.210,0.050
'5:01.156',-0.205,0.070
'5:01.158',-0.200,0.060
'5:01.161',-0.200,0.045
'5:01.164',-0.205,0.040
'5:01.167',-0.220,0.040
'5:01.169',-0.195,0.055
'5:01.172',-0.190,0.070
'5:01.175',-0.200,0.055
'5:01.178',-0.210,0.055
'5:01.181',-0.215,0.055
'5:01.183',-0.200,0.100
'5:01.186',-0.200,0.125
'5:01.189',-0.200,0.145
'5:01.192',-0.215,0.135
'5:01.194',-0.225,0.110
'5:01.197',-0.225,0.080
'5:01.200',-0.190,0.045
'5:01.203',-0.105,-0.005
'5:01.206',-0.005,-0.095
'5:01.208',0.095,-0.195
'5:01.211',0.175,-0.335
'5:01.214',0.250,-0.470
'5:01.217',0.350,-0.595
'5:01.219',0.515,-0.695
'5:01.222',0.690,-0.770
'5:01.225',0.865,-0.840
'5:01.228',1.065,-0.920
'5:01.231',1.245,-0.970
'5:01.233',1.430,-1.000
'5:01.236',1.625,-1.025
'5:01.239',1.765,-1.035
'5:01.242',1.820,-1.045
'5:01.244',1.795,-1.045
'5:01.247',1.720,-1.050
'5:01.250',1.605,-1.050
'5:01.253',1.445,-1.010
'5:01.256',1.190,-0.985
'5:01.258',0.890,-0.960
'5:01.261',0.595,-0.915
'5:01.264',0.385,-0.885
'5:01.267',0.270,-0.805
'5:01.269',0.235,-0.700
'5:01.272',0.265,-0.610
'5:01.275',0.270,-0.520
'5:01.278',0.240,-0.475
'5:01.281',0.220,-0.410
'5:01.283',0.195,-0.365
'5:01.286',0.165,-0.325
'5:01.289',0.140,-0.280
'5:01.292',0.110,-0.245
'5:01.294',0.075,-0.215
'5:01.297',0.045,-0.170
'5:01.300',0.020,-0.125
'5:01.303',-0.010,-0.065
'5:01.306',-0.005,-0.005
'5:01.308',-0.040,0.005
'5:01.311',-0.060,0.055
'5:01.314',-0.125,0.080
'5:01.317',-0.170,0.120
'5:01.319',-0.205,0.180
'5:01.322',-0.220,0.210
'5:01.325',-0.245,0.235
'5:01.328',-0.285,0.240
'5:01.331',-0.335,0.240
'5:01.333',-0.355,0.265
'5:01.336',-0.370,0.290
'5:01.339',-0.375,0.305
'5:01.342',-0.370,0.300
'5:01.344',-0.385,0.300
'5:01.347',-0.385,0.315
'5:01.350',-0.390,0.330
'5:01.353',-0.375,0.350
'5:01.356',-0.360,0.380
'5:01.358',-0.365,0.375
'5:01.361',-0.390,0.380
'5:01.364',-0.410,0.380
'5:01.367',-0.405,0.395
'5:01.369',-0.400,0.420
'5:01.372',-0.390,0.450
'5:01.375',-0.385,0.430
'5:01.378',-0.390,0.435
'5:01.381',-0.430,0.435
'5:01.383',-0.420,0.445
'5:01.386',-0.400,0.480
'5:01.389',-0.375,0.480
'5:01.392',-0.385,0.490
'5:01.394',-0.405,0.490
'5:01.397',-0.430,0.495
'5:01.400',-0.440,0.525
'5:01.403',-0.420,0.560
'5:01.406',-0.410,0.600
'5:01.408',-0.405,0.595
'5:01.411',-0.445,0.595
'5:01.414',-0.460,0.605
'5:01.417',-0.465,0.620
'5:01.419',-0.460,0.655
'5:01.422',-0.445,0.690
'5:01.425',-0.450,0.690
'5:01.428',-0.460,0.680
'5:01.431',-0.485,0.695
'5:01.433',-0.490,0.715
'5:01.436',-0.485,0.740
'5:01.439',-0.475,0.785
'5:01.442',-0.495,0.775
'5:01.444',-0.505,0.785
'5:01.447',-0.530,0.785
'5:01.450',-0.525,0.805
'5:01.453',-0.515,0.830
'5:01.456',-0.520,0.835
'5:01.458',-0.520,0.840
'5:01.461',-0.535,0.830
'5:01.464',-0.540,0.825
'5:01.467',-0.550,0.840
'5:01.469',-0.540,0.835
'5:01.472',-0.525,0.840
'5:01.475',-0.535,0.815
'5:01.478',-0.550,0.800
'5:01.481',-0.570,0.775
'5:01.483',-0.565,0.790
'5:01.486',-0.545,0.780
'5:01.489',-0.530,0.770
'5:01.492',-0.520,0.735
'5:01.494',-0.540,0.690
'5:01.497',-0.545,0.660
'5:01.500',-0.520,0.630
'5:01.503',-0.500,0.620
'5:01.506',-0.470,0.575
'5:01.508',-0.460,0.550
'5:01.511',-0.455,0.505
'5:01.514',-0.445,0.465
'5:01.517',-0.445,0.440
'5:01.519',-0.405,0.430
'5:01.522',-0.360,0.405
'5:01.525',-0.330,0.375
'5:01.528',-0.315,0.340
'5:01.531',-0.335,0.305
'5:01.533',-0.315,0.300
'5:01.536',-0.305,0.285
'5:01.539',-0.285,0.265
'5:01.542',-0.260,0.235
'5:01.544',-0.250,0.200
'5:01.547',-0.250,0.175
'5:01.550',-0.220,0.175
'5:01.553',-0.220,0.190
'5:01.556',-0.200,0.165
'5:01.558',-0.190,0.140
'5:01.561',-0.210,0.130
'5:01.564',-0.225,0.105
'5:01.567',-0.205,0.100
'5:01.569',-0.175,0.110
'5:01.572',-0.185,0.120
'5:01.575',-0.185,0.110
'5:01.578',-0.190,0.095
'5:01.581',-0.205,0.095
'5:01.583',-0.200,0.090
'5:01.586',-0.180,0.095
'5:01.589',-0.160,0.110
'5:01.592',-0.175,0.090
'5:01.594',-0.190,0.070
'5:01.597',-0.215,0.060
'5:01.600',-0.225,0.070
'5:01.603',-0.205,0.080
'5:01.606',-0.180,0.090
'5:01.608',-0.180,0.075
'5:01.611',-0.190,0.065
'5:01.614',-0.205,0.050
'5:01.617',-0.225,0.070
'5:01.619',-0.200,0.085
'5:01.622',-0.180,0.100
'5:01.625',-0.170,0.085
'5:01.628',-0.180,0.070
'5:01.631',-0.205,0.065
'5:01.633',-0.210,0.065
'5:01.636',-0.205,0.090
'5:01.639',-0.210,0.090
'5:01.642',-0.195,0.085
'5:01.644',-0.205,0.065
'5:01.647',-0.210,0.070
'5:01.650',-0.210,0.075
'5:01.653',-0.205,0.095
'5:01.656',-0.195,0.100
'5:01.658',-0.195,0.090
'5:01.661',-0.225,0.070
'5:01.664',-0.240,0.055
'5:01.667',-0.220,0.075
'5:01.669',-0.220,0.085
'5:01.672',-0.185,0.110
'5:01.675',-0.195,0.105
'5:01.678',-0.210,0.075
'5:01.681',-0.220,0.075
'5:01.683',-0.240,0.090
'5:01.686',-0.215,0.090
'5:01.689',-0.200,0.095
'5:01.692',-0.215,0.085
'5:01.694',-0.210,0.070
'5:01.697',-0.220,0.065
'5:01.700',-0.240,0.075
'5:01.703',-0.230,0.090
'5:01.706',-0.210,0.095
'5:01.708',-0.210,0.095
'5:01.711',-0.210,0.050
'5:01.714',-0.220,0.065
'5:01.717',-0.235,0.070
'5:01.719',-0.210,0.090
'5:01.722',-0.210,0.095
'5:01.725',-0.200,0.085
'5:01.728',-0.205,0.060
'5:01.731',-0.215,0.050
'5:01.733',-0.215,0.055
'5:01.736',-0.190,0.065
'5:01.739',-0.165,0.085
'5:01.742',-0.170,0.075
'5:01.744',-0.200,0.050
'5:01.747',-0.205,0.045
'5:01.750',-0.215,0.060
'5:01.753',-0.185,0.070
'5:01.756',-0.185,0.090
'5:01.758',-0.185,0.070
'5:01.761',-0.200,0.060
'5:01.764',-0.230,0.045
'5:01.767',-0.245,0.060
'5:01.769',-0.240,0.065
'5:01.772',-0.210,0.080
'5:01.775',-0.190,0.070
'5:01.778',-0.185,0.055
'5:01.781',-0.185,0.040
'5:01.783',-0.175,0.040
'5:01.786',-0.160,0.065
'5:01.789',-0.155,0.080
'5:01.792',-0.155,0.075
'5:01.794',-0.160,0.065
'5:01.797',-0.175,0.075
'5:01.800',-0.165,0.060
'5:01.803',-0.145,0.090
'5:01.806',-0.140,0.075
'5:01.808',-0.140,0.085
'5:01.811',-0.135,0.055
'5:01.814',-0.160,0.050
'5:01.817',-0.155,0.035
'5:01.819',-0.135,0.050
'5:01.822',-0.135,0.060
'5:01.825',-0.125,0.050
'5:01.828',-0.150,0.025
'5:01.831',-0.140,0.015
'5:01.833',-0.145,0.025
'5:01.836',-0.135,0.035
'5:01.839',-0.125,0.050
'5:01.842',-0.130,0.055
'5:01.844',-0.150,0.030
'5:01.847',-0.165,0.010
'5:01.850',-0.180,0.030
'5:01.853',-0.180,0.025
'5:01.856',-0.170,0.020
'5:01.858',-0.170,0.010
'5:01.861',-0.185,0.000
'5:01.864',-0.200,-0.015
'5:01.867',-0.220,-0.005
'5:01.869',-0.210,0.010
'5:01.872',-0.200,0.020
'5:01.875',-0.195,0.000
'5:01.878',-0.205,-0.020
'5:01.881',-0.205,-0.025
'5:01.883',-0.190,-0.010
'5:01.886',-0.190,0.020
'5:01.889',-0.205,0.035
'5:01.892',-0.205,0.030
'5:01.894',-0.220,0.030
'5:01.897',-0.235,0.015
'5:01.900',-0.240,0.025
'5:01.903',-0.230,0.035
'5:01.906',-0.220,0.040
'5:01.908',-0.215,0.035
'5:01.911',-0.225,0.035
'5:01.914',-0.235,0.005
'5:01.917',-0.230,0.015
'5:01.919',-0.230,0.040
'5:01.922',-0.225,0.050
'5:01.925',-0.220,0.035
'5:01.928',-0.210,0.010
'5:01.931',-0.205,0.015
'5:01.933',-0.215,0.040
'5:01.936',-0.210,0.080
'5:01.939',-0.200,0.110
'5:01.942',-0.205,0.105
'5:01.944',-0.225,0.115
'5:01.947',-0.245,0.095
'5:01.950',-0.230,0.065
'5:01.953',-0.175,0.075
'5:01.956',-0.100,0.030
'5:01.958',0.005,-0.065
'5:01.961',0.095,-0.165
'5:01.964',0.165,-0.295
'5:01.967',0.250,-0.400
'5:01.969',0.350,-0.520
'5:01.972',0.485,-0.605
'5:01.975',0.630,-0.715
'5:01.978',0.775,-0.820
'5:01.981',0.925,-0.880
'5:01.983',1.095,-0.915
'5:01.986',1.290,-0.935
'5:01.989',1.490,-0.945
'5:01.992',1.620,-0.985
'5:01.994',1.685,-1.010
'5:01.997',1.675,-1.025
'5:02.000',1.655,-1.025
'5:02.003',1.610,-1.010
'5:02.006',1.520,-0.990
'5:02.008',1.295,-1.010
'5:02.011',0.990,-1.015
'5:02.014',0.680,-1.000
'5:02.017',0.460,-0.940
'5:02.019',0.330,-0.865
'5:02.022',0.290,-0.750
'5:02.025',0.275,-0.675
'5:02.028',0.275,-0.590
'5:02.031',0.265,-0.520
'5:02.033',0.260,-0.435
'5:02.036',0.245,-0.365
'5:02.039',0.240,-0.325
'5:02.042',0.210,-0.305
'5:02.044',0.160,-0.295
'5:02.047',0.115,-0.270
'5:02.050',0.080,-0.210
'5:02.053',0.025,-0.140
'5:02.056',-0.005,-0.055
'5:02.058',-0.050,-0.010
'5:02.061',-0.110,0.025
'5:02.064',-0.165,0.060
'5:02.067',-0.185,0.105
'5:02.069',-0.205,0.155
'5:02.072',-0.215,0.205
'5:02.075',-0.260,0.230
'5:02.078',-0.280,0.245
'5:02.081',-0.320,0.265
'5:02.083',-0.330,0.290
'5:02.086',-0.330,0.310
'5:02.089',-0.320,0.345
'5:02.092',-0.330,0.340
'5:02.094',-0.365,0.310
'5:02.097',-0.375,0.310
'5:02.100',-0.375,0.335
'5:02.103',-0.370,0.355
'5:02.106',-0.365,0.385
'5:02.108',-0.385,0.400
'5:02.111',-0.395,0.410
'5:02.114',-0.400,0.410
'5:02.117',-0.410,0.415
'5:02.119',-0.390,0.450
'5:02.122',-0.350,0.470
'5:02.125',-0.330,0.460
'5:02.128',-0.355,0.425
'5:02.131',-0.385,0.430
'5:02.133',-0.410,0.430
'5:02.136',-0.420,0.445
'5:02.139',-0.420,0.470
'5:02.142',-0.425,0.480
'5:02.144',-0.450,0.475
'5:02.147',-0.460,0.490
'5:02.150',-0.465,0.500
'5:02.153',-0.470,0.520
'5:02.156',-0.445,0.525
'5:02.158',-0.455,0.510
'5:02.161',-0.440,0.515
'5:02.164',-0.440,0.495
'5:02.167',-0.435,0.530
'5:02.169',-0.430,0.550
'5:02.172',-0.430,0.585
'5:02.175',-0.450,0.595
'5:02.178',-0.470,0.600
'5:02.181',-0.495,0.610
'5:02.183',-0.490,0.615
'5:02.186',-0.470,0.650
'5:02.189',-0.440,0.670
'5:02.192',-0.460,0.695
'5:02.194',-0.490,0.680
'5:02.197',-0.520,0.685
'5:02.200',-0.525,0.685
'5:02.203',-0.540,0.715
'5:02.206',-0.515,0.745
'5:02.208',-0.510,0.760
'5:02.211',-0.500,0.765
'5:02.214',-0.500,0.785
'5:02.217',-0.485,0.795
'5:02.219',-0.480,0.835
'5:02.222',-0.485,0.830
'5:02.225',-0.515,0.805
'5:02.228',-0.545,0.785
'5:02.231',-0.580,0.750
'5:02.233',-0.560,0.780
'5:02.236',-0.525,0.780
'5:02.239',-0.500,0.790
'5:02.242',-0.495,0.765
'5:02.244',-0.515,0.745
'5:02.247',-0.545,0.735
'5:02.250',-0.555,0.730
'5:02.253',-0.560,0.740
'5:02.256',-0.560,0.720
'5:02.258',-0.565,0.685
'5:02.261',-0.575,0.655
'5:02.264',-0.570,0.620
'5:02.267',-0.535,0.600
'5:02.269',-0.500,0.575
'5:02.272',-0.470,0.560
'5:02.275',-0.450,0.515
'5:02.278',-0.460,0.480
'5:02.281',-0.460,0.430
'5:02.283',-0.455,0.405
'5:02.286',-0.420,0.385
'5:02.289',-0.380,0.340
'5:02.292',-0.360,0.305
'5:02.294',-0.355,0.260
'5:02.297',-0.365,0.225
'5:02.300',-0.350,0.225
'5:02.303',-0.315,0.215
'5:02.306',-0.285,0.195
'5:02.308',-0.280,0.175
'5:02.311',-0.285,0.150
'5:02.314',-0.265,0.140
'5:02.317',-0.250,0.105
'5:02.319',-0.230,0.120
'5:02.322',-0.205,0.095
'5:02.325',-0.200,0.080
'5:02.328',-0.210,0.055
'5:02.331',-0.220,0.040
'5:02.333',-0.225,0.030
'5:02.336',-0.215,0.045
'5:02.339',-0.205,0.050
'5:02.342',-0.195,0.035
'5:02.344',-0.210,0.010
'5:02.347',-0.235,-0.005
'5:02.350',-0.240,0.005
'5:02.353',-0.230,-0.005
'5:02.356',-0.215,0.010
'5:02.358',-0.205,0.005
'5:02.361',-0.215,0.000
'5:02.364',-0.230,-0.015
'5:02.367',-0.235,-0.025
'5:02.369',-0.235,-0.025
'5:02.372',-0.235,-0.010
'5:02.375',-0.210,-0.005
'5:02.378',-0.220,-0.045
'5:02.381',-0.225,-0.025
'5:02.383',-0.240,-0.025
'5:02.386',-0.235,-0.030
'5:02.389',-0.230,-0.030
'5:02.392',-0.225,-0.020
'5:02.394',-0.225,-0.050
'5:02.397',-0.255,-0.040
'5:02.400',-0.260,-0.040
'5:02.403',-0.220,-0.020
'5:02.406',-0.210,-0.010
'5:02.408',-0.210,-0.025
'5:02.411',-0.230,-0.045
'5:02.414',-0.255,-0.055
'5:02.417',-0.260,-0.050
'5:02.419',-0.230,-0.025
'5:02.422',-0.205,-0.010
'5:02.425',-0.200,-0.040
'5:02.428',-0.215,-0.050
'5:02.431',-0.235,-0.055
'5:02.433',-0.245,-0.040
'5:02.436',-0.235,-0.040
'5:02.439',-0.200,-0.020
'5:02.442',-0.205,-0.025
'5:02.444',-0.215,-0.050
'5:02.447',-0.230,-0.050
'5:02.450',-0.240,-0.025
'5:02.453',-0.225,-0.040
'5:02.456',-0.215,-0.010
'5:02.458',-0.210,-0.020
'5:02.461',-0.215,-0.045
'5:02.464',-0.220,-0.035
'5:02.467',-0.220,-0.035
'5:02.469',-0.210,-0.030
'5:02.472',-0.215,-0.020
'5:02.475',-0.215,-0.040
'5:02.478',-0.230,-0.045
'5:02.481',-0.240,-0.045
'5:02.483',-0.235,-0.030
'5:02.486',-0.225,-0.035
'5:02.489',-0.210,-0.035
'5:02.492',-0.205,-0.040
'5:02.494',-0.215,-0.050
'5:02.497',-0.235,-0.065
'5:02.500',-0.250,-0.055
'5:02.503',-0.230,-0.040
'5:02.506',-0.200,-0.035
'5:02.508',-0.220,-0.035
'5:02.511',-0.225,-0.045
'5:02.514',-0.235,-0.070
'5:02.517',-0.245,-0.060
'5:02.519',-0.225,-0.040
'5:02.522',-0.220,-0.030
'5:02.525',-0.210,-0.055
'5:02.528',-0.225,-0.055
'5:02.531',-0.230,-0.050
'5:02.533',-0.225,-0.055
'5:02.536',-0.230,-0.035
'5:02.539',-0.215,-0.030
'5:02.542',-0.220,-0.060
'5:02.544',-0.210,-0.065
'5:02.547',-0.205,-0.080
'5:02.550',-0.205,-0.060
'5:02.553',-0.195,-0.060
'5:02.556',-0.180,-0.045
'5:02.558',-0.150,-0.070
'5:02.561',-0.165,-0.070
'5:02.564',-0.180,-0.095
'5:02.567',-0.165,-0.080
'5:02.569',-0.160,-0.050
'5:02.572',-0.145,-0.030
'5:02.575',-0.130,-0.040
'5:02.578',-0.145,-0.065
'5:02.581',-0.160,-0.080
'5:02.583',-0.165,-0.060
'5:02.586',-0.150,-0.060
'5:02.589',-0.115,-0.050
'5:02.592',-0.120,-0.060
'5:02.594',-0.140,-0.085
'5:02.597',-0.150,-0.085
'5:02.600',-0.170,-0.075
'5:02.603',-0.170,-0.070
'5:02.606',-0.150,-0.060
'5:02.608',-0.140,-0.055
'5:02.611',-0.145,-0.080
'5:02.614',-0.165,-0.075
'5:02.617',-0.170,-0.055
'5:02.619',-0.170,-0.045
'5:02.622',-0.175,-0.045
'5:02.625',-0.175,-0.050
'5:02.628',-0.175,-0.085
'5:02.631',-0.200,-0.085
'5:02.633',-0.205,-0.100
'5:02.636',-0.210,-0.075
'5:02.639',-0.215,-0.070
'5:02.642',-0.210,-0.085
'5:02.644',-0.225,-0.100
'5:02.647',-0.235,-0.115
'5:02.650',-0.245,-0.100
'5:02.653',-0.215,-0.080
'5:02.656',-0.200,-0.080
'5:02.658',-0.205,-0.070
'5:02.661',-0.235,-0.095
'5:02.664',-0.255,-0.110
'5:02.667',-0.255,-0.095
'5:02.669',-0.235,-0.070
'5:02.672',-0.205,-0.055
'5:02.675',-0.210,-0.080
'5:02.678',-0.225,-0.090
'5:02.681',-0.230,-0.100
'5:02.683',-0.245,-0.095
'5:02.686',-0.230,-0.080
'5:02.689',-0.220,-0.070
'5:02.692',-0.215,-0.080
'5:02.694',-0.225,-0.110
'5:02.697',-0.225,-0.100
'5:02.700',-0.220,-0.080
'5:02.703',-0.210,-0.040
'5:02.706',-0.200,-0.030
'5:02.708',-0.200,-0.020
'5:02.711',-0.215,-0.045
'5:02.714',-0.220,-0.075
'5:02.717',-0.195,-0.090
'5:02.719',-0.135,-0.115
'5:02.722',-0.055,-0.180
'5:02.725',0.020,-0.300
'5:02.728',0.110,-0.440
'5:02.731',0.170,-0.590
'5:02.733',0.235,-0.705
'5:02.736',0.335,-0.790
'5:02.739',0.450,-0.870
'5:02.742',0.580,-0.980
'5:02.744',0.710,-1.070
'5:02.747',0.870,-1.120
'5:02.750',1.025,-1.155
'5:02.753',1.215,-1.150
'5:02.756',1.415,-1.145
'5:02.758',1.570,-1.135
'5:02.761',1.665,-1.135
'5:02.764',1.700,-1.135
'5:02.767',1.705,-1.115
'5:02.769',1.665,-1.100
'5:02.772',1.600,-1.095
'5:02.775',1.450,-1.085
'5:02.778',1.230,-1.085
'5:02.781',0.965,-1.040
'5:02.783',0.735,-0.995
'5:02.786',0.565,-0.925
'5:02.789',0.450,-0.870
'5:02.792',0.360,-0.815
'5:02.794',0.325,-0.755
'5:02.797',0.285,-0.700
'5:02.800',0.295,-0.620
'5:02.803',0.295,-0.560
'5:02.806',0.285,-0.495
'5:02.808',0.230,-0.460
'5:02.811',0.170,-0.415
'5:02.814',0.115,-0.390
'5:02.817',0.045,-0.345
'5:02.819',0.030,-0.285
'5:02.822',0.020,-0.235
'5:02.825',0.005,-0.200
'5:02.828',-0.030,-0.175
'5:02.831',-0.085,-0.150
'5:02.833',-0.115,-0.115
'5:02.836',-0.140,-0.070
'5:02.839',-0.160,-0.025
'5:02.842',-0.190,0.010
'5:02.844',-0.235,0.005
'5:02.847',-0.270,0.035
'5:02.850',-0.285,0.060
'5:02.853',-0.310,0.100
'5:02.856',-0.335,0.110
'5:02.858',-0.350,0.115
'5:02.861',-0.375,0.120
'5:02.864',-0.400,0.120
'5:02.867',-0.395,0.130
'5:02.869',-0.380,0.150
'5:02.872',-0.375,0.185
'5:02.875',-0.385,0.175
'5:02.878',-0.405,0.155
'5:02.881',-0.410,0.150
'5:02.883',-0.425,0.170
'5:02.886',-0.410,0.200
'5:02.889',-0.405,0.215
'5:02.892',-0.405,0.230
'5:02.894',-0.415,0.205
'5:02.897',-0.435,0.205
'5:02.900',-0.435,0.220
'5:02.903',-0.430,0.240
'5:02.906',-0.435,0.255
'5:02.908',-0.420,0.280
'5:02.911',-0.425,0.270
'5:02.914',-0.430,0.275
'5:02.917',-0.445,0.290
'5:02.919',-0.435,0.300
'5:02.922',-0.430,0.325
'5:02.925',-0.430,0.320
'5:02.928',-0.460,0.320
'5:02.931',-0.475,0.325
'5:02.933',-0.490,0.345
'5:02.936',-0.470,0.375
'5:02.939',-0.475,0.415
'5:02.942',-0.480,0.405
'5:02.944',-0.495,0.415
'5:02.947',-0.490,0.415
'5:02.950',-0.505,0.430
'5:02.953',-0.500,0.455
'5:02.956',-0.480,0.500
'5:02.958',-0.490,0.490
'5:02.961',-0.490,0.495
'5:02.964',-0.510,0.500
'5:02.967',-0.525,0.515
'5:02.969',-0.530,0.545
'5:02.972',-0.535,0.565
'5:02.975',-0.525,0.555
'5:02.978',-0.540,0.575
'5:02.981',-0.570,0.570
'5:02.983',-0.585,0.590
'5:02.986',-0.575,0.620
'5:02.989',-0.565,0.625
'5:02.992',-0.580,0.630
'5:02.994',-0.600,0.605
'5:02.997',-0.630,0.615
'5:03.000',-0.605,0.615
'5:03.003',-0.600,0.630
'5:03.006',-0.580,0.630
'5:03.008',-0.575,0.620
'5:03.011',-0.610,0.600
'5:03.014',-0.620,0.580
'5:03.017',-0.630,0.580
'5:03.019',-0.625,0.580
'5:03.022',-0.600,0.580
'5:03.025',-0.590,0.545
'5:03.028',-0.600,0.520
'5:03.031',-0.610,0.480
'5:03.033',-0.620,0.465
'5:03.036',-0.590,0.450
'5:03.039',-0.570,0.455
'5:03.042',-0.565,0.425
'5:03.044',-0.550,0.390
'5:03.047',-0.540,0.350
'5:03.050',-0.520,0.345
'5:03.053',-0.505,0.325
'5:03.056',-0.490,0.310
'5:03.058',-0.470,0.275
'5:03.061',-0.480,0.225
'5:03.064',-0.460,0.185
'5:03.067',-0.450,0.185
'5:03.069',-0.420,0.155
'5:03.072',-0.370,0.150
'5:03.075',-0.340,0.110
'5:03.078',-0.345,0.060
'5:03.081',-0.335,0.020
'5:03.083',-0.315,0.025
'5:03.086',-0.295,0.015
'5:03.089',-0.250,0.015
'5:03.092',-0.245,0.000
'5:03.094',-0.250,-0.035
'5:03.097',-0.250,-0.040
'5:03.100',-0.245,-0.065
'5:03.103',-0.240,-0.065
'5:03.106',-0.210,-0.070
'5:03.108',-0.195,-0.085
'5:03.111',-0.215,-0.095
'5:03.114',-0.215,-0.115
'5:03.117',-0.220,-0.105
'5:03.119',-0.200,-0.100
'5:03.122',-0.175,-0.100
'5:03.125',-0.195,-0.120
'5:03.128',-0.205,-0.135
'5:03.131',-0.200,-0.145
'5:03.133',-0.210,-0.145
'5:03.136',-0.200,-0.130
'5:03.139',-0.185,-0.125
'5:03.142',-0.195,-0.140
'5:03.144',-0.195,-0.145
'5:03.147',-0.215,-0.145
'5:03.150',-0.215,-0.155
'5:03.153',-0.220,-0.135
'5:03.156',-0.200,-0.130
'5:03.158',-0.195,-0.130
'5:03.161',-0.215,-0.150
'5:03.164',-0.225,-0.175
'5:03.167',-0.210,-0.160
'5:03.169',-0.195,-0.135
'5:03.172',-0.195,-0.125
'5:03.175',-0.200,-0.135
'5:03.178',-0.220,-0.160
'5:03.181',-0.215,-0.170
'5:03.183',-0.220,-0.165
'5:03.186',-0.200,-0.140
'5:03.189',-0.185,-0.130
'5:03.192',-0.190,-0.130
'5:03.194',-0.220,-0.150
'5:03.197',-0.225,-0.145
'5:03.200',-0.230,-0.150
'5:03.203',-0.215,-0.135
'5:03.206',-0.200,-0.120
'5:03.208',-0.195,-0.135
'5:03.211',-0.205,-0.140
'5:03.214',-0.215,-0.145
'5:03.217',-0.230,-0.150
'5:03.219',-0.210,-0.130
'5:03.222',-0.205,-0.135
'5:03.225',-0.205,-0.140
'5:03.228',-0.230,-0.140
'5:03.231',-0.240,-0.155
'5:03.233',-0.220,-0.140
'5:03.236',-0.210,-0.135
'5:03.239',-0.210,-0.130
'5:03.242',-0.215,-0.125
'5:03.244',-0.235,-0.145
'5:03.247',-0.255,-0.140
'5:03.250',-0.250,-0.145
'5:03.253',-0.235,-0.120
'5:03.256',-0.220,-0.110
'5:03.258',-0.230,-0.125
'5:03.261',-0.235,-0.150
'5:03.264',-0.240,-0.165
'5:03.267',-0.235,-0.155
'5:03.269',-0.225,-0.140
'5:03.272',-0.235,-0.125
'5:03.275',-0.220,-0.140
'5:03.278',-0.225,-0.145
'5:03.281',-0.245,-0.150
'5:03.283',-0.245,-0.170
'5:03.286',-0.225,-0.145
'5:03.289',-0.215,-0.140
'5:03.292',-0.215,-0.155
'5:03.294',-0.205,-0.160
'5:03.297',-0.235,-0.175
'5:03.300',-0.230,-0.155
'5:03.303',-0.235,-0.145
'5:03.306',-0.215,-0.140
'5:03.308',-0.200,-0.165
'5:03.311',-0.215,-0.170
'5:03.314',-0.220,-0.180
'5:03.317',-0.220,-0.160
'5:03.319',-0.210,-0.155
'5:03.322',-0.210,-0.155
'5:03.325',-0.205,-0.170
'5:03.328',-0.215,-0.185
'5:03.331',-0.235,-0.185
'5:03.333',-0.230,-0.175
'5:03.336',-0.210,-0.170
'5:03.339',-0.190,-0.165
'5:03.342',-0.180,-0.180
'5:03.344',-0.180,-0.185
'5:03.347',-0.175,-0.185
'5:03.350',-0.165,-0.175
'5:03.353',-0.170,-0.155
'5:03.356',-0.160,-0.145
'5:03.358',-0.160,-0.160
'5:03.361',-0.160,-0.185
'5:03.364',-0.185,-0.195
'5:03.367',-0.160,-0.180
'5:03.369',-0.150,-0.160
'5:03.372',-0.145,-0.145
'5:03.375',-0.160,-0.160
'5:03.378',-0.175,-0.175
'5:03.381',-0.175,-0.175
'5:03.383',-0.160,-0.170
'5:03.386',-0.145,-0.155
'5:03.389',-0.130,-0.150
'5:03.392',-0.120,-0.170
'5:03.394',-0.135,-0.205
'5:03.397',-0.150,-0.220
'5:03.400',-0.155,-0.210
'5:03.403',-0.145,-0.190
'5:03.406',-0.140,-0.165
'5:03.408',-0.125,-0.180
'5:03.411',-0.125,-0.200
'5:03.414',-0.150,-0.215
'5:03.417',-0.160,-0.215
'5:03.419',-0.180,-0.205
'5:03.422',-0.165,-0.200
'5:03.425',-0.170,-0.195
'5:03.428',-0.190,-0.225
'5:03.431',-0.205,-0.215
'5:03.433',-0.200,-0.215
'5:03.436',-0.210,-0.205
'5:03.439',-0.200,-0.205
'5:03.442',-0.210,-0.225
'5:03.444',-0.250,-0.235
'5:03.447',-0.255,-0.245
'5:03.450',-0.245,-0.230
'5:03.453',-0.205,-0.205
'5:03.456',-0.185,-0.200
'5:03.458',-0.180,-0.200
'5:03.461',-0.205,-0.220
'5:03.464',-0.220,-0.220
'5:03.467',-0.225,-0.220
'5:03.469',-0.210,-0.210
'5:03.472',-0.200,-0.205
'5:03.475',-0.200,-0.215
'5:03.478',-0.220,-0.220
'5:03.481',-0.220,-0.220
'5:03.483',-0.230,-0.200
'5:03.486',-0.220,-0.190
'5:03.489',-0.205,-0.185
'5:03.492',-0.215,-0.200
'5:03.494',-0.220,-0.220
'5:03.497',-0.230,-0.225
'5:03.500',-0.230,-0.225
'5:03.503',-0.210,-0.205
'5:03.506',-0.190,-0.195
'5:03.508',-0.185,-0.175
'5:03.511',-0.190,-0.195
'5:03.514',-0.210,-0.180
'5:03.517',-0.210,-0.160
'5:03.519',-0.200,-0.160
'5:03.522',-0.190,-0.165
'5:03.525',-0.185,-0.215
'5:03.528',-0.130,-0.270
'5:03.531',-0.050,-0.360
'5:03.533',0.055,-0.420
'5:03.536',0.155,-0.490
'5:03.539',0.240,-0.560
'5:03.542',0.325,-0.665
'5:03.544',0.415,-0.765
'5:03.547',0.515,-0.825
'5:03.550',0.620,-0.890
'5:03.553',0.720,-0.940
'5:03.556',0.845,-0.985
'5:03.558',0.940,-1.055
'5:03.561',1.065,-1.100
'5:03.564',1.190,-1.155
'5:03.567',1.340,-1.170
'5:03.569',1.515,-1.185
'5:03.572',1.670,-1.190
'5:03.575',1.755,-1.205
'5:03.578',1.760,-1.230
'5:03.581',1.695,-1.235
'5:03.583',1.590,-1.220
'5:03.586',1.425,-1.205
'5:03.589',1.185,-1.170
'5:03.592',0.895,-1.150
'5:03.594',0.635,-1.115
'5:03.597',0.440,-1.095
'5:03.600',0.335,-1.045
'5:03.603',0.280,-0.985
'5:03.606',0.280,-0.920
'5:03.608',0.290,-0.870
'5:03.611',0.270,-0.800
'5:03.614',0.260,-0.745
'5:03.617',0.245,-0.655
'5:03.619',0.215,-0.585
'5:03.622',0.215,-0.530
'5:03.625',0.175,-0.505
'5:03.628',0.130,-0.470
'5:03.631',0.075,-0.435
'5:03.633',0.025,-0.385
'5:03.636',0.000,-0.335
'5:03.639',-0.015,-0.270
'5:03.642',-0.030,-0.260
'5:03.644',-0.075,-0.235
'5:03.647',-0.110,-0.220
'5:03.650',-0.125,-0.185
'5:03.653',-0.155,-0.135
'5:03.656',-0.170,-0.100
'5:03.658',-0.230,-0.090
'5:03.661',-0.265,-0.075
'5:03.664',-0.295,-0.065
'5:03.667',-0.310,-0.035
'5:03.669',-0.290,0.000
'5:03.672',-0.275,0.040
'5:03.675',-0.300,0.035
'5:03.678',-0.335,0.020
'5:03.681',-0.375,0.025
'5:03.683',-0.395,0.050
'5:03.686',-0.370,0.075
'5:03.689',-0.355,0.100
'5:03.692',-0.350,0.100
'5:03.694',-0.360,0.080
'5:03.697',-0.375,0.080
'5:03.700',-0.380,0.105
'5:03.703',-0.380,0.115
'5:03.706',-0.370,0.145
'5:03.708',-0.380,0.120
'5:03.711',-0.390,0.130
'5:03.714',-0.400,0.125
'5:03.717',-0.410,0.130
'5:03.719',-0.395,0.165
'5:03.722',-0.375,0.190
'5:03.725',-0.370,0.170
'5:03.728',-0.390,0.180
'5:03.731',-0.410,0.175
'5:03.733',-0.420,0.200
'5:03.736',-0.420,0.215
'5:03.739',-0.395,0.245
'5:03.742',-0.400,0.250
'5:03.744',-0.405,0.235
'5:03.747',-0.425,0.235
'5:03.750',-0.420,0.255
'5:03.753',-0.415,0.290
'5:03.756',-0.430,0.310
'5:03.758',-0.420,0.320
'5:03.761',-0.420,0.315
'5:03.764',-0.450,0.315
'5:03.767',-0.445,0.335
'5:03.769',-0.445,0.370
'5:03.772',-0.435,0.385
'5:03.775',-0.440,0.375
'5:03.778',-0.460,0.380
'5:03.781',-0.500,0.380
'5:03.783',-0.500,0.405
'5:03.786',-0.500,0.425
'5:03.789',-0.470,0.460
'5:03.792',-0.465,0.465
'5:03.794',-0.480,0.465
'5:03.797',-0.485,0.465
'5:03.800',-0.490,0.485
'5:03.803',-0.510,0.525
'5:03.806',-0.495,0.545
'5:03.808',-0.505,0.555
'5:03.811',-0.515,0.550
'5:03.814',-0.520,0.550
'5:03.817',-0.525,0.560
'5:03.819',-0.525,0.585
'5:03.822',-0.530,0.595
'5:03.825',-0.530,0.590
'5:03.828',-0.555,0.590
'5:03.831',-0.570,0.590
'5:03.833',-0.560,0.595
'5:03.836',-0.550,0.615
'5:03.839',-0.550,0.610
'5:03.842',-0.555,0.600
'5:03.844',-0.575,0.565
'5:03.847',-0.590,0.555
'5:03.850',-0.595,0.570
'5:03.853',-0.590,0.555
'5:03.856',-0.560,0.560
'5:03.858',-0.560,0.540
'5:03.861',-0.565,0.510
'5:03.864',-0.575,0.485
'5:03.867',-0.575,0.465
'5:03.869',-0.555,0.455
'5:03.872',-0.530,0.440
'5:03.875',-0.520,0.405
'5:03.878',-0.505,0.370
'5:03.881',-0.510,0.345
'5:03.883',-0.500,0.320
'5:03.886',-0.470,0.305
'5:03.889',-0.450,0.280
'5:03.892',-0.435,0.240
'5:03.894',-0.420,0.220
'5:03.897',-0.430,0.190
'5:03.900',-0.410,0.160
'5:03.903',-0.385,0.165
'5:03.906',-0.330,0.145
'5:03.908',-0.320,0.120
'5:03.911',-0.315,0.085
'5:03.914',-0.315,0.050
'5:03.917',-0.305,0.040
'5:03.919',-0.290,0.030
'5:03.922',-0.250,0.030
'5:03.925',-0.240,0.005
'5:03.928',-0.245,-0.040
'5:03.931',-0.240,-0.060
'5:03.933',-0.235,-0.060
'5:03.936',-0.195,-0.060
'5:03.939',-0.175,-0.080
'5:03.942',-0.170,-0.080
'5:03.944',-0.190,-0.115
'5:03.947',-0.185,-0.125
'5:03.950',-0.190,-0.130
'5:03.953',-0.185,-0.120
'5:03.956',-0.150,-0.125
'5:03.958',-0.145,-0.150
'5:03.961',-0.150,-0.155
'5:03.964',-0.160,-0.160
'5:03.967',-0.165,-0.175
'5:03.969',-0.155,-0.155
'5:03.972',-0.135,-0.150
'5:03.975',-0.145,-0.155
'5:03.978',-0.145,-0.170
'5:03.981',-0.165,-0.180
'5:03.983',-0.160,-0.175
'5:03.986',-0.160,-0.170
'5:03.989',-0.145,-0.170
'5:03.992',-0.130,-0.185
'5:03.994',-0.150,-0.195
'5:03.997',-0.170,-0.200
'5:04.000',-0.170,-0.195
'5:04.003',-0.155,-0.180
'5:04.006',-0.135,-0.175
'5:04.008',-0.145,-0.185
'5:04.011',-0.150,-0.195
'5:04.014',-0.165,-0.190
'5:04.017',-0.170,-0.205
'5:04.019',-0.155,-0.180
'5:04.022',-0.145,-0.170
'5:04.025',-0.145,-0.170
'5:04.028',-0.160,-0.200
'5:04.031',-0.160,-0.205
'5:04.033',-0.150,-0.200
'5:04.036',-0.140,-0.175
'5:04.039',-0.140,-0.180
'5:04.042',-0.145,-0.180
'5:04.044',-0.165,-0.190
'5:04.047',-0.185,-0.195
'5:04.050',-0.190,-0.175
'5:04.053',-0.155,-0.165
'5:04.056',-0.140,-0.150
'5:04.058',-0.135,-0.165
'5:04.061',-0.135,-0.185
'5:04.064',-0.170,-0.200
'5:04.067',-0.175,-0.200
'5:04.069',-0.170,-0.180
'5:04.072',-0.160,-0.170
'5:04.075',-0.165,-0.175
'5:04.078',-0.155,-0.185
'5:04.081',-0.155,-0.170
'5:04.083',-0.155,-0.175
'5:04.086',-0.145,-0.165
'5:04.089',-0.140,-0.145
'5:04.092',-0.150,-0.180
'5:04.094',-0.170,-0.185
'5:04.097',-0.185,-0.190
'5:04.100',-0.190,-0.190
'5:04.103',-0.175,-0.165
'5:04.106',-0.150,-0.150
'5:04.108',-0.155,-0.160
'5:04.111',-0.180,-0.185
'5:04.114',-0.190,-0.190
'5:04.117',-0.190,-0.175
'5:04.119',-0.180,-0.165
'5:04.122',-0.150,-0.160
'5:04.125',-0.140,-0.170
'5:04.128',-0.140,-0.180
'5:04.131',-0.155,-0.180
'5:04.133',-0.170,-0.175
'5:04.136',-0.165,-0.150
'5:04.139',-0.150,-0.135
'5:04.142',-0.165,-0.145
'5:04.144',-0.175,-0.165
'5:04.147',-0.170,-0.185
'5:04.150',-0.165,-0.185
'5:04.153',-0.155,-0.160
'5:04.156',-0.140,-0.145
'5:04.158',-0.155,-0.145
'5:04.161',-0.165,-0.170
'5:04.164',-0.170,-0.195
'5:04.167',-0.180,-0.185
'5:04.169',-0.165,-0.175
'5:04.172',-0.135,-0.175
'5:04.175',-0.125,-0.160
'5:04.178',-0.125,-0.190
'5:04.181',-0.135,-0.195
'5:04.183',-0.135,-0.185
'5:04.186',-0.125,-0.175
'5:04.189',-0.100,-0.165
'5:04.192',-0.090,-0.170
'5:04.194',-0.085,-0.180
'5:04.197',-0.110,-0.185
'5:04.200',-0.090,-0.175
'5:04.203',-0.095,-0.180
'5:04.206',-0.090,-0.155
'5:04.208',-0.090,-0.150
'5:04.211',-0.110,-0.180
'5:04.214',-0.105,-0.185
'5:04.217',-0.090,-0.195
'5:04.219',-0.065,-0.180
'5:04.222',-0.070,-0.190
'5:04.225',-0.070,-0.195
'5:04.228',-0.085,-0.205
'5:04.231',-0.110,-0.225
'5:04.233',-0.110,-0.205
'5:04.236',-0.090,-0.190
'5:04.239',-0.070,-0.165
'5:04.242',-0.045,-0.180
'5:04.244',-0.070,-0.200
'5:04.247',-0.095,-0.205
'5:04.250',-0.105,-0.200
'5:04.253',-0.110,-0.195
'5:04.256',-0.110,-0.175
'5:04.258',-0.115,-0.185
'5:04.261',-0.110,-0.200
'5:04.264',-0.135,-0.210
'5:04.267',-0.145,-0.210
'5:04.269',-0.160,-0.195
'5:04.272',-0.150,-0.190
'5:04.275',-0.160,-0.185
'5:04.278',-0.160,-0.210
'5:04.281',-0.155,-0.225
'5:04.283',-0.175,-0.205
'5:04.286',-0.175,-0.195
'5:04.289',-0.135,-0.195
'5:04.292',-0.150,-0.185
'5:04.294',-0.170,-0.195
'5:04.297',-0.205,-0.225
'5:04.300',-0.195,-0.210
'5:04.303',-0.195,-0.185
'5:04.306',-0.155,-0.185
'5:04.308',-0.160,-0.165
'5:04.311',-0.165,-0.190
'5:04.314',-0.185,-0.210
'5:04.317',-0.185,-0.200
'5:04.319',-0.170,-0.185
'5:04.322',-0.155,-0.175
'5:04.325',-0.140,-0.190
'5:04.328',-0.165,-0.190
'5:04.331',-0.180,-0.190
'5:04.333',-0.185,-0.175
'5:04.336',-0.175,-0.135
'5:04.339',-0.160,-0.120
'5:04.342',-0.155,-0.100
'5:04.344',-0.175,-0.115
'5:04.347',-0.185,-0.125
'5:04.350',-0.200,-0.140
'5:04.353',-0.160,-0.155
'5:04.356',-0.095,-0.175
'5:04.358',-0.045,-0.275
'5:04.361',0.045,-0.390
'5:04.364',0.135,-0.480
'5:04.367',0.230,-0.610
'5:04.369',0.350,-0.720
'5:04.372',0.465,-0.800
'5:04.375',0.590,-0.905
'5:04.378',0.710,-0.990
'5:04.381',0.840,-1.060
'5:04.383',0.990,-1.085
'5:04.386',1.170,-1.110
'5:04.389',1.385,-1.130
'5:04.392',1.565,-1.160
'5:04.394',1.720,-1.195
'5:04.397',1.815,-1.200
'5:04.400',1.870,-1.185
'5:04.403',1.910,-1.170
'5:04.406',1.885,-1.160
'5:04.408',1.790,-1.155
'5:04.411',1.610,-1.150
'5:04.414',1.370,-1.155
'5:04.417',1.085,-1.105
'5:04.419',0.820,-1.035
'5:04.422',0.600,-0.990
'5:04.425',0.470,-0.930
'5:04.428',0.405,-0.875
'5:04.431',0.375,-0.785
'5:04.433',0.360,-0.695
'5:04.436',0.355,-0.600
'5:04.439',0.345,-0.550
'5:04.442',0.270,-0.510
'5:04.444',0.215,-0.490
'5:04.447',0.155,-0.465
'5:04.450',0.115,-0.410
'5:04.453',0.095,-0.355
'5:04.456',0.075,-0.300
'5:04.458',0.075,-0.275
'5:04.461',0.020,-0.240
'5:04.464',-0.015,-0.205
'5:04.467',-0.060,-0.165
'5:04.469',-0.095,-0.125
'5:04.472',-0.115,-0.080
'5:04.475',-0.150,-0.040
'5:04.478',-0.185,-0.015
'5:04.481',-0.230,-0.005
'5:04.483',-0.280,0.025
'5:04.486',-0.310,0.060
'5:04.489',-0.300,0.070
'5:04.492',-0.305,0.080
'5:04.494',-0.325,0.070
'5:04.497',-0.350,0.075
'5:04.500',-0.350,0.085
'5:04.503',-0.355,0.120
'5:04.506',-0.355,0.155
'5:04.508',-0.375,0.135
'5:04.511',-0.375,0.140
'5:04.514',-0.410,0.130
'5:04.517',-0.405,0.150
'5:04.519',-0.390,0.185
'5:04.522',-0.380,0.190
'5:04.525',-0.380,0.205
'5:04.528',-0.390,0.200
'5:04.531',-0.410,0.195
'5:04.533',-0.420,0.225
'5:04.536',-0.395,0.245
'5:04.539',-0.385,0.255
'5:04.542',-0.385,0.250
'5:04.544',-0.400,0.255
'5:04.547',-0.415,0.245
'5:04.550',-0.425,0.275
'5:04.553',-0.435,0.310
'5:04.556',-0.415,0.340
'5:04.558',-0.435,0.320
'5:04.561',-0.430,0.335
'5:04.564',-0.430,0.340
'5:04.567',-0.435,0.365
'5:04.569',-0.425,0.390
'5:04.572',-0.430,0.430
'5:04.575',-0.445,0.430
'5:04.578',-0.450,0.440
'5:04.581',-0.465,0.450
'5:04.583',-0.465,0.475
'5:04.586',-0.465,0.495
'5:04.589',-0.455,0.525
'5:04.592',-0.460,0.535
'5:04.594',-0.485,0.525
'5:04.597',-0.510,0.535
'5:04.600',-0.515,0.535
'5:04.603',-0.495,0.570
'5:04.606',-0.490,0.605
'5:04.608',-0.475,0.610
'5:04.611',-0.495,0.610
'5:04.614',-0.525,0.595
'5:04.617',-0.550,0.635
'5:04.619',-0.535,0.645
'5:04.622',-0.535,0.670
'5:04.625',-0.545,0.675
'5:04.628',-0.550,0.675
'5:04.631',-0.585,0.660
'5:04.633',-0.590,0.650
'5:04.636',-0.595,0.665
'5:04.639',-0.590,0.675
'5:04.642',-0.580,0.645
'5:04.644',-0.580,0.620
'5:04.647',-0.595,0.620
'5:04.650',-0.600,0.615
'5:04.653',-0.585,0.615
'5:04.656',-0.575,0.605
'5:04.658',-0.580,0.570
'5:04.661',-0.585,0.530
'5:04.664',-0.575,0.495
'5:04.667',-0.565,0.470
'5:04.669',-0.545,0.470
'5:04.672',-0.500,0.455
'5:04.675',-0.495,0.415
'5:04.678',-0.490,0.365
'5:04.681',-0.495,0.320
'5:04.683',-0.480,0.300
'5:04.686',-0.435,0.270
'5:04.689',-0.390,0.260
'5:04.692',-0.375,0.200
'5:04.694',-0.350,0.180
'5:04.697',-0.360,0.145
'5:04.700',-0.350,0.125
'5:04.703',-0.315,0.115
'5:04.706',-0.265,0.100
'5:04.708',-0.250,0.070
'5:04.711',-0.245,0.045
'5:04.714',-0.225,0.010
'5:04.717',-0.210,0.015
'5:04.719',-0.195,0.020
'5:04.722',-0.180,0.005
'5:04.725',-0.175,-0.005
'5:04.728',-0.195,-0.020
'5:04.731',-0.200,-0.050
'5:04.733',-0.190,-0.045
'5:04.736',-0.170,-0.025
'5:04.739',-0.145,-0.030
'5:04.742',-0.145,-0.050
'5:04.744',-0.160,-0.065
'5:04.747',-0.170,-0.075
'5:04.750',-0.170,-0.070
'5:04.753',-0.155,-0.055
'5:04.756',-0.150,-0.055
'5:04.758',-0.145,-0.065
'5:04.761',-0.165,-0.070
'5:04.764',-0.190,-0.090
'5:04.767',-0.195,-0.080
'5:04.769',-0.180,-0.055
'5:04.772',-0.160,-0.060
'5:04.775',-0.165,-0.075
'5:04.778',-0.165,-0.085
'5:04.781',-0.180,-0.095
'5:04.783',-0.185,-0.080
'5:04.786',-0.170,-0.065
'5:04.789',-0.175,-0.055
'5:04.792',-0.165,-0.060
'5:04.794',-0.185,-0.065
'5:04.797',-0.180,-0.080
'5:04.800',-0.180,-0.070
'5:04.803',-0.180,-0.045
'5:04.806',-0.175,-0.035
'5:04.808',-0.200,-0.045
'5:04.811',-0.205,-0.050
'5:04.814',-0.220,-0.065
'5:04.817',-0.200,-0.060
'5:04.819',-0.185,-0.035
'5:04.822',-0.175,-0.030
'5:04.825',-0.165,-0.040
'5:04.828',-0.180,-0.055
'5:04.831',-0.215,-0.050
'5:04.833',-0.225,-0.045
'5:04.836',-0.210,-0.040
'5:04.839',-0.175,-0.025
'5:04.842',-0.165,-0.035
'5:04.844',-0.185,-0.045
'5:04.847',-0.205,-0.045
'5:04.850',-0.195,-0.035
'5:04.853',-0.205,-0.020
'5:04.856',-0.200,-0.015
'5:04.858',-0.190,-0.040
'5:04.861',-0.200,-0.045
'5:04.864',-0.210,-0.050
'5:04.867',-0.205,-0.050
'5:04.869',-0.195,-0.010
'5:04.872',-0.175,-0.005
'5:04.875',-0.200,-0.025
'5:04.878',-0.200,-0.020
'5:04.881',-0.205,-0.040
'5:04.883',-0.210,-0.035
'5:04.886',-0.195,-0.020
'5:04.889',-0.180,-0.005
'5:04.892',-0.180,-0.020
'5:04.894',-0.190,-0.020
'5:04.897',-0.225,-0.035
'5:04.900',-0.200,-0.040
'5:04.903',-0.190,-0.025
'5:04.906',-0.175,-0.010
'5:04.908',-0.165,-0.030
'5:04.911',-0.180,-0.035
'5:04.914',-0.205,-0.045
'5:04.917',-0.205,-0.050
'5:04.919',-0.195,-0.030
'5:04.922',-0.180,-0.015
'5:04.925',-0.175,-0.030
'5:04.928',-0.185,-0.040
'5:04.931',-0.185,-0.050
'5:04.933',-0.175,-0.040
'5:04.936',-0.175,-0.030
'5:04.939',-0.180,-0.010
'5:04.942',-0.170,-0.025
'5:04.944',-0.175,-0.025
'5:04.947',-0.175,-0.045
'5:04.950',-0.150,-0.040
'5:04.953',-0.135,-0.025
'5:04.956',-0.125,-0.005
'5:04.958',-0.130,-0.015
'5:04.961',-0.135,-0.035
'5:04.964',-0.160,-0.035
'5:04.967',-0.165,-0.020
'5:04.969',-0.145,-0.020
'5:04.972',-0.130,-0.010
'5:04.975',-0.135,-0.005
'5:04.978',-0.140,-0.015
'5:04.981',-0.145,-0.025
'5:04.983',-0.150,-0.025
'5:04.986',-0.120,-0.015
'5:04.989',-0.090,0.000
'5:04.992',-0.085,-0.020
'5:04.994',-0.085,-0.035
'5:04.997',-0.120,-0.045
'5:05.000',-0.130,-0.045
'5:05.003',-0.115,-0.025
'5:05.006',-0.095,-0.010
'5:05.008',-0.085,-0.010
'5:05.011',-0.100,-0.035
'5:05.014',-0.125,-0.045
'5:05.017',-0.145,-0.025
'5:05.019',-0.150,-0.020
'5:05.022',-0.140,-0.015
'5:05.025',-0.135,-0.025
'5:05.028',-0.155,-0.055
'5:05.031',-0.165,-0.050
'5:05.033',-0.170,-0.050
'5:05.036',-0.160,-0.035
'5:05.039',-0.165,-0.025
'5:05.042',-0.175,-0.040
'5:05.044',-0.205,-0.055
'5:05.047',-0.220,-0.065
'5:05.050',-0.200,-0.060
'5:05.053',-0.185,-0.055
'5:05.056',-0.165,-0.025
'5:05.058',-0.170,-0.035
'5:05.061',-0.195,-0.050
'5:05.064',-0.215,-0.040
'5:05.067',-0.230,-0.040
'5:05.069',-0.205,-0.030
'5:05.072',-0.160,-0.015
'5:05.075',-0.150,-0.015
'5:05.078',-0.175,-0.050
'5:05.081',-0.195,-0.040
'5:05.083',-0.205,-0.035
'5:05.086',-0.190,-0.030
'5:05.089',-0.165,-0.010
'5:05.092',-0.180,-0.030
'5:05.094',-0.190,-0.040
'5:05.097',-0.185,-0.040
'5:05.100',-0.185,-0.005
'5:05.103',-0.195,0.030
'5:05.106',-0.190,0.065
'5:05.108',-0.200,0.050
'5:05.111',-0.215,0.020
'5:05.114',-0.195,0.000
'5:05.117',-0.120,-0.040
'5:05.119',-0.040,-0.100
'5:05.122',0.075,-0.195
'5:05.125',0.185,-0.315
'5:05.128',0.280,-0.455
'5:05.131',0.365,-0.580
'5:05.133',0.470,-0.695
'5:05.136',0.620,-0.790
'5:05.139',0.785,-0.865
'5:05.142',0.965,-0.970
'5:05.144',1.140,-1.040
'5:05.147',1.350,-1.080
'5:05.150',1.555,-1.125
'5:05.153',1.750,-1.105
'5:05.156',1.880,-1.085
'5:05.158',1.930,-1.090
'5:05.161',1.925,-1.100
'5:05.164',1.850,-1.090
'5:05.167',1.750,-1.080
'5:05.169',1.610,-1.060
'5:05.172',1.350,-1.010
'5:05.175',1.030,-0.955
'5:05.178',0.720,-0.910
'5:05.181',0.505,-0.845
'5:05.183',0.415,-0.745
'5:05.186',0.395,-0.620
'5:05.189',0.400,-0.530
'5:05.192',0.365,-0.465
'5:05.194',0.330,-0.410
'5:05.197',0.260,-0.380
'5:05.200',0.200,-0.320
'5:05.203',0.150,-0.270
'5:05.206',0.110,-0.220
'5:05.208',0.070,-0.175
'5:05.211',0.045,-0.140
'5:05.214',0.025,-0.100
'5:05.217',-0.005,-0.070
'5:05.219',-0.040,0.000
'5:05.222',-0.085,0.055
'5:05.225',-0.140,0.090
'5:05.228',-0.190,0.105
'5:05.231',-0.240,0.140
'5:05.233',-0.290,0.190
'5:05.236',-0.300,0.250
'5:05.239',-0.325,0.265
'5:05.242',-0.355,0.280
'5:05.244',-0.380,0.280
'5:05.247',-0.400,0.275
'5:05.250',-0.405,0.305
'5:05.253',-0.410,0.310
'5:05.256',-0.400,0.340
'5:05.258',-0.405,0.345
'5:05.261',-0.415,0.345
'5:05.264',-0.420,0.355
'5:05.267',-0.425,0.375
'5:05.269',-0.425,0.395
'5:05.272',-0.405,0.420
'5:05.275',-0.405,0.420
'5:05.278',-0.435,0.420
'5:05.281',-0.465,0.430
'5:05.283',-0.465,0.455
'5:05.286',-0.470,0.495
'5:05.289',-0.445,0.510
'5:05.292',-0.460,0.515
'5:05.294',-0.475,0.510
'5:05.297',-0.500,0.515
'5:05.300',-0.495,0.545
'5:05.303',-0.480,0.565
'5:05.306',-0.455,0.605
'5:05.308',-0.465,0.615
'5:05.311',-0.480,0.615
'5:05.314',-0.510,0.630
'5:05.317',-0.530,0.660
'5:05.319',-0.530,0.685
'5:05.322',-0.500,0.710
'5:05.325',-0.510,0.725
'5:05.328',-0.545,0.735
'5:05.331',-0.555,0.760
'5:05.333',-0.575,0.775
'5:05.336',-0.580,0.810
'5:05.339',-0.565,0.810
'5:05.342',-0.575,0.825
'5:05.344',-0.585,0.835
'5:05.347',-0.610,0.835
'5:05.350',-0.635,0.840
'5:05.353',-0.635,0.875
'5:05.356',-0.635,0.880
'5:05.358',-0.640,0.880
'5:05.361',-0.650,0.880
'5:05.364',-0.665,0.865
'5:05.367',-0.665,0.860
'5:05.369',-0.660,0.890
'5:05.372',-0.655,0.890
'5:05.375',-0.670,0.865
'5:05.378',-0.670,0.825
'5:05.381',-0.680,0.795
'5:05.383',-0.670,0.785
'5:05.386',-0.640,0.785
'5:05.389',-0.635,0.780
'5:05.392',-0.640,0.750
'5:05.394',-0.630,0.710
'5:05.397',-0.645,0.690
'5:05.400',-0.620,0.640
'5:05.403',-0.580,0.625
'5:05.406',-0.540,0.600
'5:05.408',-0.515,0.560
'5:05.411',-0.510,0.500
'5:05.414',-0.500,0.455
'5:05.417',-0.470,0.420
'5:05.419',-0.425,0.395
'5:05.422',-0.360,0.380
'5:05.425',-0.330,0.340
'5:05.428',-0.325,0.280
'5:05.431',-0.330,0.265
'5:05.433',-0.300,0.260
'5:05.436',-0.255,0.255
'5:05.439',-0.225,0.250
'5:05.442',-0.210,0.200
'5:05.444',-0.195,0.170
'5:05.447',-0.225,0.150
'5:05.450',-0.225,0.145
'5:05.453',-0.215,0.150
'5:05.456',-0.185,0.145
'5:05.458',-0.165,0.140
'5:05.461',-0.170,0.115
'5:05.464',-0.190,0.095
'5:05.467',-0.185,0.110
'5:05.469',-0.170,0.115
'5:05.472',-0.160,0.115
'5:05.475',-0.150,0.105
'5:05.478',-0.165,0.105
'5:05.481',-0.185,0.090
'5:05.483',-0.180,0.090
'5:05.486',-0.185,0.100
'5:05.489',-0.160,0.110
'5:05.492',-0.160,0.100
'5:05.494',-0.165,0.080
'5:05.497',-0.185,0.070
'5:05.500',-0.170,0.095
'5:05.503',-0.165,0.105
'5:05.506',-0.160,0.120
'5:05.508',-0.155,0.115
'5:05.511',-0.180,0.100
'5:05.514',-0.180,0.090
'5:05.517',-0.170,0.095
'5:05.519',-0.160,0.120
'5:05.522',-0.150,0.120
'5:05.525',-0.160,0.115
'5:05.528',-0.170,0.095
'5:05.531',-0.190,0.085
'5:05.533',-0.175,0.090
'5:05.536',-0.160,0.115
'5:05.539',-0.155,0.120
'5:05.542',-0.155,0.120
'5:05.544',-0.175,0.100
'5:05.547',-0.195,0.100
'5:05.550',-0.190,0.110
'5:05.553',-0.180,0.135
'5:05.556',-0.180,0.130
'5:05.558',-0.160,0.110
'5:05.561',-0.180,0.105
'5:05.564',-0.195,0.105
'5:05.567',-0.200,0.125
'5:05.569',-0.205,0.150
'5:05.572',-0.185,0.150
'5:05.575',-0.175,0.135
'5:05.578',-0.180,0.125
'5:05.581',-0.185,0.110
'5:05.583',-0.180,0.130
'5:05.586',-0.195,0.130
'5:05.589',-0.185,0.155
'5:05.592',-0.195,0.155
'5:05.594',-0.185,0.135
'5:05.597',-0.185,0.120
'5:05.600',-0.180,0.140
'5:05.603',-0.180,0.140
'5:05.606',-0.175,0.140
'5:05.608',-0.185,0.145
'5:05.611',-0.190,0.130
'5:05.614',-0.205,0.115
'5:05.617',-0.180,0.125
'5:05.619',-0.160,0.140
'5:05.622',-0.155,0.150
'5:05.625',-0.150,0.135
'5:05.628',-0.160,0.120
'5:05.631',-0.195,0.110
'5:05.633',-0.185,0.115
'5:05.636',-0.165,0.120
'5:05.639',-0.150,0.130
'5:05.642',-0.130,0.130
'5:05.644',-0.145,0.105
'5:05.647',-0.160,0.100
'5:05.650',-0.145,0.115
'5:05.653',-0.130,0.120
'5:05.656',-0.100,0.130
'5:05.658',-0.090,0.125
'5:05.661',-0.105,0.115
'5:05.664',-0.130,0.105
'5:05.667',-0.120,0.120
'5:05.669',-0.115,0.130
'5:05.672',-0.090,0.140
'5:05.675',-0.085,0.125
'5:05.678',-0.080,0.110
'5:05.681',-0.095,0.115
'5:05.683',-0.080,0.110
'5:05.686',-0.070,0.115
'5:05.689',-0.055,0.120
'5:05.692',-0.055,0.100
'5:05.694',-0.090,0.080
'5:05.697',-0.100,0.065
'5:05.700',-0.110,0.070
'5:05.703',-0.090,0.090
'5:05.706',-0.055,0.085
'5:05.708',-0.055,0.090
'5:05.711',-0.075,0.070
'5:05.714',-0.105,0.055
'5:05.717',-0.115,0.060
'5:05.719',-0.100,0.075
'5:05.722',-0.095,0.080
'5:05.725',-0.085,0.075
'5:05.728',-0.115,0.045
'5:05.731',-0.160,0.040
'5:05.733',-0.165,0.040
'5:05.736',-0.145,0.060
'5:05.739',-0.140,0.060
'5:05.742',-0.135,0.055
'5:05.744',-0.150,0.040
'5:05.747',-0.155,0.020
'5:05.750',-0.170,0.025
'5:05.753',-0.155,0.060
'5:05.756',-0.145,0.075
'5:05.758',-0.140,0.070
'5:05.761',-0.155,0.045
'5:05.764',-0.180,0.025
'5:05.767',-0.175,0.035
'5:05.769',-0.160,0.065
'5:05.772',-0.150,0.075
'5:05.775',-0.150,0.070
'5:05.778',-0.150,0.065
'5:05.781',-0.165,0.075
'5:05.783',-0.160,0.065
'5:05.786',-0.145,0.065
'5:05.789',-0.140,0.080
'5:05.792',-0.145,0.070
'5:05.794',-0.150,0.065
'5:05.797',-0.170,0.075
'5:05.800',-0.150,0.095
'5:05.803',-0.155,0.140
'5:05.806',-0.160,0.145
'5:05.808',-0.160,0.100
'5:05.811',-0.120,0.040
'5:05.814',-0.040,-0.035
'5:05.817',0.085,-0.110
'5:05.819',0.220,-0.195
'5:05.822',0.340,-0.280
'5:05.825',0.415,-0.390
'5:05.828',0.505,-0.490
'5:05.831',0.580,-0.610
'5:05.833',0.675,-0.700
'5:05.836',0.835,-0.780
'5:05.839',1.035,-0.835
'5:05.842',1.260,-0.900
'5:05.844',1.480,-0.930
'5:05.847',1.725,-0.970
'5:05.850',1.880,-0.970
'5:05.853',1.955,-0.960
'5:05.856',1.930,-0.940
'5:05.858',1.780,-0.935
'5:05.861',1.465,-0.950
'5:05.864',1.040,-0.930
'5:05.867',0.655,-0.890
'5:05.869',0.425,-0.820
'5:05.872',0.350,-0.755
'5:05.875',0.340,-0.705
'5:05.878',0.335,-0.635
'5:05.881',0.335,-0.540
'5:05.883',0.315,-0.445
'5:05.886',0.280,-0.350
'5:05.889',0.240,-0.270
'5:05.892',0.185,-0.225
'5:05.894',0.145,-0.190
'5:05.897',0.095,-0.145
'5:05.900',0.045,-0.100
'5:05.903',0.030,-0.030
'5:05.906',0.000,0.030
'5:05.908',-0.035,0.050
'5:05.911',-0.090,0.075
'5:05.914',-0.125,0.105
'5:05.917',-0.165,0.155
'5:05.919',-0.190,0.195
'5:05.922',-0.215,0.240
'5:05.925',-0.265,0.255
'5:05.928',-0.275,0.275
'5:05.931',-0.305,0.280
'5:05.933',-0.320,0.300
'5:05.936',-0.330,0.320
'5:05.939',-0.330,0.345
'5:05.942',-0.335,0.350
'5:05.944',-0.350,0.345
'5:05.947',-0.380,0.335
'5:05.950',-0.385,0.370
'5:05.953',-0.375,0.405
'5:05.956',-0.375,0.415
'5:05.958',-0.365,0.405
'5:05.961',-0.390,0.410
'5:05.964',-0.420,0.405
'5:05.967',-0.410,0.415
'5:05.969',-0.390,0.450
'5:05.972',-0.380,0.475
'5:05.975',-0.375,0.475
'5:05.978',-0.390,0.475
'5:05.981',-0.430,0.485
'5:05.983',-0.430,0.485
'5:05.986',-0.425,0.535
'5:05.989',-0.405,0.550
'5:05.992',-0.410,0.545
'5:05.994',-0.425,0.555
'5:05.997',-0.445,0.560
'5:06.000',-0.470,0.585
'5:06.003',-0.455,0.620
'5:06.006',-0.460,0.640
'5:06.008',-0.440,0.635
'5:06.011',-0.450,0.645
'5:06.014',-0.475,0.640
'5:06.017',-0.470,0.675
'5:06.019',-0.475,0.710
'5:06.022',-0.480,0.740
'5:06.025',-0.490,0.740
'5:06.028',-0.505,0.755
'5:06.031',-0.520,0.755
'5:06.033',-0.540,0.780
'5:06.036',-0.545,0.815
'5:06.039',-0.550,0.835
'5:06.042',-0.555,0.840
'5:06.044',-0.575,0.825
'5:06.047',-0.595,0.830
'5:06.050',-0.590,0.855
'5:06.053',-0.590,0.870
'5:06.056',-0.580,0.885
'5:06.058',-0.595,0.885
'5:06.061',-0.625,0.870
'5:06.064',-0.640,0.850
'5:06.067',-0.625,0.850
'5:06.069',-0.615,0.850
'5:06.072',-0.600,0.855
'5:06.075',-0.595,0.815
'5:06.078',-0.615,0.795
'5:06.081',-0.630,0.765
'5:06.083',-0.625,0.755
'5:06.086',-0.595,0.750
'5:06.089',-0.565,0.730
'5:06.092',-0.545,0.695
'5:06.094',-0.555,0.640
'5:06.097',-0.565,0.605
'5:06.100',-0.545,0.595
'5:06.103',-0.520,0.570
'5:06.106',-0.480,0.545
'5:06.108',-0.435,0.510
'5:06.111',-0.415,0.465
'5:06.114',-0.400,0.415
'5:06.117',-0.380,0.375
'5:06.119',-0.340,0.360
'5:06.122',-0.295,0.355
'5:06.125',-0.285,0.320
'5:06.128',-0.260,0.295
'5:06.131',-0.245,0.275
'5:06.133',-0.245,0.240
'5:06.136',-0.220,0.235
'5:06.139',-0.195,0.235
'5:06.142',-0.170,0.215
'5:06.144',-0.165,0.190
'5:06.147',-0.170,0.165
'5:06.150',-0.160,0.175
'5:06.153',-0.165,0.185
'5:06.156',-0.160,0.185
'5:06.158',-0.170,0.165
'5:06.161',-0.170,0.145
'5:06.164',-0.170,0.120
'5:06.167',-0.170,0.145
'5:06.169',-0.170,0.135
'5:06.172',-0.140,0.160
'5:06.175',-0.150,0.140
'5:06.178',-0.160,0.130
'5:06.181',-0.170,0.110
'5:06.183',-0.175,0.120
'5:06.186',-0.150,0.120
'5:06.189',-0.145,0.130
'5:06.192',-0.130,0.135
'5:06.194',-0.145,0.125
'5:06.197',-0.170,0.110
'5:06.200',-0.180,0.115
'5:06.203',-0.170,0.140
'5:06.206',-0.150,0.140
'5:06.208',-0.140,0.125
'5:06.211',-0.165,0.115
'5:06.214',-0.180,0.115
'5:06.217',-0.185,0.125
'5:06.219',-0.185,0.140
'5:06.222',-0.170,0.155
'5:06.225',-0.160,0.145
'5:06.228',-0.155,0.125
'5:06.231',-0.170,0.110
'5:06.233',-0.175,0.125
'5:06.236',-0.170,0.140
'5:06.239',-0.160,0.150
'5:06.242',-0.170,0.145
'5:06.244',-0.180,0.130
'5:06.247',-0.185,0.130
'5:06.250',-0.180,0.135
'5:06.253',-0.165,0.145
'5:06.256',-0.165,0.165
'5:06.258',-0.170,0.150
'5:06.261',-0.175,0.120
'5:06.264',-0.175,0.130
'5:06.267',-0.170,0.145
'5:06.269',-0.175,0.145
'5:06.272',-0.160,0.155
'5:06.275',-0.160,0.145
'5:06.278',-0.185,0.140
'5:06.281',-0.215,0.125
'5:06.283',-0.205,0.145
'5:06.286',-0.200,0.165
'5:06.289',-0.155,0.175
'5:06.292',-0.150,0.155
'5:06.294',-0.165,0.135
'5:06.297',-0.195,0.115
'5:06.300',-0.190,0.130
'5:06.303',-0.180,0.140
'5:06.306',-0.150,0.160
'5:06.308',-0.150,0.165
'5:06.311',-0.155,0.140
'5:06.314',-0.185,0.130
'5:06.317',-0.185,0.120
'5:06.319',-0.165,0.145
'5:06.322',-0.160,0.145
'5:06.325',-0.160,0.130
'5:06.328',-0.155,0.120
'5:06.331',-0.170,0.130
'5:06.333',-0.180,0.120
'5:06.336',-0.170,0.135
'5:06.339',-0.155,0.135
'5:06.342',-0.170,0.140
'5:06.344',-0.165,0.115
'5:06.347',-0.160,0.110
'5:06.350',-0.170,0.105
'5:06.353',-0.155,0.130
'5:06.356',-0.150,0.140
'5:06.358',-0.140,0.125
'5:06.361',-0.160,0.130
'5:06.364',-0.175,0.100
'5:06.367',-0.160,0.095
'5:06.369',-0.135,0.105
'5:06.372',-0.110,0.115
'5:06.375',-0.100,0.115
'5:06.378',-0.100,0.105
'5:06.381',-0.120,0.090
'5:06.383',-0.110,0.100
'5:06.386',-0.100,0.095
'5:06.389',-0.080,0.110
'5:06.392',-0.080,0.110
'5:06.394',-0.090,0.100
'5:06.397',-0.120,0.080
'5:06.400',-0.105,0.095
'5:06.403',-0.090,0.115
'5:06.406',-0.070,0.120
'5:06.408',-0.045,0.115
'5:06.411',-0.050,0.095
'5:06.414',-0.065,0.070
'5:06.417',-0.070,0.070
'5:06.419',-0.085,0.090
'5:06.422',-0.065,0.090
'5:06.425',-0.075,0.070
'5:06.428',-0.090,0.075
'5:06.431',-0.090,0.055
'5:06.433',-0.080,0.055
'5:06.436',-0.085,0.075
'5:06.439',-0.080,0.085
'5:06.442',-0.105,0.075
'5:06.444',-0.115,0.065
'5:06.447',-0.130,0.065
'5:06.450',-0.140,0.075
'5:06.453',-0.125,0.080
'5:06.456',-0.125,0.080
'5:06.458',-0.150,0.085
'5:06.461',-0.170,0.065
'5:06.464',-0.190,0.035
'5:06.467',-0.200,0.045
'5:06.469',-0.170,0.050
'5:06.472',-0.145,0.075
'5:06.475',-0.140,0.070
'5:06.478',-0.150,0.055
'5:06.481',-0.170,0.035
'5:06.483',-0.175,0.035
'5:06.486',-0.170,0.060
'5:06.489',-0.160,0.070
'5:06.492',-0.140,0.070
'5:06.494',-0.150,0.060
'5:06.497',-0.175,0.045
'5:06.500',-0.175,0.040
'5:06.503',-0.175,0.050
'5:06.506',-0.155,0.070
'5:06.508',-0.145,0.050
'5:06.511',-0.160,0.040
'5:06.514',-0.160,0.035
'5:06.517',-0.160,0.060
'5:06.519',-0.145,0.090
'5:06.522',-0.140,0.095
'5:06.525',-0.135,0.090
'5:06.528',-0.155,0.075
'5:06.531',-0.160,0.045
'5:06.533',-0.140,-0.005
'5:06.536',-0.065,-0.070
'5:06.539',0.050,-0.175
'5:06.542',0.170,-0.300
'5:06.544',0.270,-0.445
'5:06.547',0.365,-0.580
'5:06.550',0.470,-0.660
'5:06.553',0.575,-0.740
'5:06.556',0.690,-0.805
'5:06.558',0.805,-0.900
'5:06.561',0.970,-0.960
'5:06.564',1.130,-1.020
'5:06.567',1.315,-1.025
'5:06.569',1.535,-1.005
'5:06.572',1.740,-0.975
'5:06.575',1.875,-0.950
'5:06.578',1.910,-0.940
'5:06.581',1.905,-0.960
'5:06.583',1.790,-0.925
'5:06.586',1.570,-0.900
'5:06.589',1.255,-0.860
'5:06.592',0.965,-0.830
'5:06.594',0.715,-0.790
'5:06.597',0.585,-0.755
'5:06.600',0.500,-0.685
'5:06.603',0.465,-0.590
'5:06.606',0.440,-0.490
'5:06.608',0.430,-0.425
'5:06.611',0.395,-0.390
'5:06.614',0.365,-0.345
'5:06.617',0.320,-0.295
'5:06.619',0.260,-0.240
'5:06.622',0.225,-0.175
'5:06.625',0.185,-0.145
'5:06.628',0.135,-0.100
'5:06.631',0.090,-0.040
'5:06.633',0.055,0.005
'5:06.636',0.015,0.050
'5:06.639',-0.025,0.095
'5:06.642',-0.055,0.120
'5:06.644',-0.105,0.130
'5:06.647',-0.140,0.175
'5:06.650',-0.175,0.225
'5:06.653',-0.205,0.280
'5:06.656',-0.240,0.295
'5:06.658',-0.275,0.315
'5:06.661',-0.310,0.320
'5:06.664',-0.335,0.310
'5:06.667',-0.360,0.340
'5:06.669',-0.350,0.360
'5:06.672',-0.335,0.385
'5:06.675',-0.340,0.400
'5:06.678',-0.370,0.380
'5:06.681',-0.375,0.385
'5:06.683',-0.400,0.405
'5:06.686',-0.375,0.410
'5:06.689',-0.365,0.435
'5:06.692',-0.370,0.440
'5:06.694',-0.385,0.450
'5:06.697',-0.410,0.435
'5:06.700',-0.420,0.465
'5:06.703',-0.410,0.480
'5:06.706',-0.395,0.520
'5:06.708',-0.415,0.525
'5:06.711',-0.425,0.520
'5:06.714',-0.450,0.540
'5:06.717',-0.460,0.555
'5:06.719',-0.455,0.575
'5:06.722',-0.430,0.595
'5:06.725',-0.430,0.590
'5:06.728',-0.445,0.600
'5:06.731',-0.475,0.605
'5:06.733',-0.485,0.625
'5:06.736',-0.500,0.670
'5:06.739',-0.495,0.690
'5:06.742',-0.475,0.715
'5:06.744',-0.495,0.710
'5:06.747',-0.515,0.715
'5:06.750',-0.555,0.760
'5:06.753',-0.550,0.775
'5:06.756',-0.535,0.805
'5:06.758',-0.540,0.810
'5:06.761',-0.555,0.810
'5:06.764',-0.565,0.815
'5:06.767',-0.600,0.835
'5:06.769',-0.600,0.850
'5:06.772',-0.595,0.870
'5:06.775',-0.605,0.870
'5:06.778',-0.615,0.865
'5:06.781',-0.630,0.855
'5:06.783',-0.650,0.855
'5:06.786',-0.640,0.860
'5:06.789',-0.625,0.855
'5:06.792',-0.625,0.835
'5:06.794',-0.620,0.810
'5:06.797',-0.630,0.795
'5:06.800',-0.630,0.780
'5:06.803',-0.620,0.775
'5:06.806',-0.600,0.770
'5:06.808',-0.585,0.730
'5:06.811',-0.580,0.675
'5:06.814',-0.580,0.640
'5:06.817',-0.555,0.640
'5:06.819',-0.530,0.640
'5:06.822',-0.500,0.615
'5:06.825',-0.490,0.575
'5:06.828',-0.485,0.525
'5:06.831',-0.485,0.470
'5:06.833',-0.455,0.450
'5:06.836',-0.420,0.425
'5:06.839',-0.380,0.405
'5:06.842',-0.335,0.380
'5:06.844',-0.320,0.335
'5:06.847',-0.305,0.280
'5:06.850',-0.300,0.280
'5:06.853',-0.255,0.260
'5:06.856',-0.210,0.250
'5:06.858',-0.185,0.225
'5:06.861',-0.185,0.195
'5:06.864',-0.200,0.175
'5:06.867',-0.195,0.180
'5:06.869',-0.180,0.180
'5:06.872',-0.180,0.190
'5:06.875',-0.150,0.175
'5:06.878',-0.155,0.150
'5:06.881',-0.165,0.120
'5:06.883',-0.165,0.140
'5:06.886',-0.155,0.145
'5:06.889',-0.125,0.150
'5:06.892',-0.135,0.130
'5:06.894',-0.135,0.125
'5:06.897',-0.150,0.100
'5:06.900',-0.170,0.110
'5:06.903',-0.165,0.120
'5:06.906',-0.160,0.130
'5:06.908',-0.145,0.125
'5:06.911',-0.155,0.110
'5:06.914',-0.160,0.105
'5:06.917',-0.155,0.105
'5:06.919',-0.160,0.120
'5:06.922',-0.160,0.135
'5:06.925',-0.155,0.120
'5:06.928',-0.175,0.110
'5:06.931',-0.180,0.090
'5:06.933',-0.165,0.125
'5:06.936',-0.150,0.140
'5:06.939',-0.150,0.145
'5:06.942',-0.155,0.135
'5:06.944',-0.185,0.135
'5:06.947',-0.185,0.110
'5:06.950',-0.190,0.105
'5:06.953',-0.170,0.120
'5:06.956',-0.155,0.145
'5:06.958',-0.160,0.130
'5:06.961',-0.175,0.120
'5:06.964',-0.205,0.110
'5:06.967',-0.210,0.125
'5:06.969',-0.195,0.135
'5:06.972',-0.190,0.135
'5:06.975',-0.175,0.145
'5:06.978',-0.190,0.130
'5:06.981',-0.205,0.115
'5:06.983',-0.210,0.140
'5:06.986',-0.210,0.155
'5:06.989',-0.215,0.160
'5:06.992',-0.215,0.140
'5:06.994',-0.205,0.130
'5:06.997',-0.220,0.125
'5:07.000',-0.230,0.135
'5:07.003',-0.225,0.155
'5:07.006',-0.215,0.145
'5:07.008',-0.220,0.155
'5:07.011',-0.215,0.135
'5:07.014',-0.230,0.140
'5:07.017',-0.225,0.135
'5:07.019',-0.210,0.130
'5:07.022',-0.210,0.160
'5:07.025',-0.210,0.140
'5:07.028',-0.225,0.130
'5:07.031',-0.240,0.125
'5:07.033',-0.230,0.125
'5:07.036',-0.220,0.130
'5:07.039',-0.210,0.145
'5:07.042',-0.200,0.135
'5:07.044',-0.205,0.120
'5:07.047',-0.225,0.115
'5:07.050',-0.220,0.105
'5:07.053',-0.220,0.120
'5:07.056',-0.195,0.130
'5:07.058',-0.200,0.130
'5:07.061',-0.195,0.110
'5:07.064',-0.200,0.105
'5:07.067',-0.200,0.105
'5:07.069',-0.190,0.115
'5:07.072',-0.185,0.140
'5:07.075',-0.195,0.120
'5:07.078',-0.195,0.105
'5:07.081',-0.210,0.105
'5:07.083',-0.210,0.100
'5:07.086',-0.205,0.120
'5:07.089',-0.190,0.125
'5:07.092',-0.210,0.115
'5:07.094',-0.200,0.100
'5:07.097',-0.220,0.095
'5:07.100',-0.205,0.095
'5:07.103',-0.190,0.105
'5:07.106',-0.175,0.125
'5:07.108',-0.160,0.120
'5:07.111',-0.160,0.095
'5:07.114',-0.160,0.085
'5:07.117',-0.175,0.090
'5:07.119',-0.160,0.100
'5:07.122',-0.135,0.130
'5:07.125',-0.125,0.125
'5:07.128',-0.125,0.095
'5:07.131',-0.145,0.095
'5:07.133',-0.150,0.095
'5:07.136',-0.160,0.095
'5:07.139',-0.145,0.120
'5:07.142',-0.115,0.115
'5:07.144',-0.115,0.100
'5:07.147',-0.120,0.075
'5:07.150',-0.115,0.085
'5:07.153',-0.130,0.110
'5:07.156',-0.120,0.105
'5:07.158',-0.115,0.090
'5:07.161',-0.145,0.070
'5:07.164',-0.125,0.050
'5:07.167',-0.130,0.065
'5:07.169',-0.105,0.070
'5:07.172',-0.100,0.085
'5:07.175',-0.110,0.085
'5:07.178',-0.135,0.070
'5:07.181',-0.160,0.045
'5:07.183',-0.170,0.060
'5:07.186',-0.160,0.070
'5:07.189',-0.145,0.080
'5:07.192',-0.145,0.070
'5:07.194',-0.160,0.065
'5:07.197',-0.190,0.050
'5:07.200',-0.200,0.070
'5:07.203',-0.200,0.055
'5:07.206',-0.185,0.070
'5:07.208',-0.185,0.055
'5:07.211',-0.165,0.030
'5:07.214',-0.200,0.030
'5:07.217',-0.205,0.040
'5:07.219',-0.195,0.055
'5:07.222',-0.190,0.065
'5:07.225',-0.190,0.055
'5:07.228',-0.200,0.050
'5:07.231',-0.210,0.045
'5:07.233',-0.200,0.055
'5:07.236',-0.190,0.060
'5:07.239',-0.185,0.060
'5:07.242',-0.190,0.060
'5:07.244',-0.225,0.045
'5:07.247',-0.230,0.045
'5:07.250',-0.200,0.040
'5:07.253',-0.185,0.070
'5:07.256',-0.190,0.065
'5:07.258',-0.190,0.030
'5:07.261',-0.190,0.035
'5:07.264',-0.205,0.035
'5:07.267',-0.210,0.050
'5:07.269',-0.230,0.090
'5:07.272',-0.195,0.125
'5:07.275',-0.180,0.100
'5:07.278',-0.185,0.090
'5:07.281',-0.200,0.035
'5:07.283',-0.175,-0.010
'5:07.286',-0.080,-0.105
'5:07.289',0.050,-0.190
'5:07.292',0.175,-0.325
'5:07.294',0.290,-0.460
'5:07.297',0.375,-0.590
'5:07.300',0.455,-0.695
'5:07.303',0.615,-0.770
'5:07.306',0.755,-0.830
'5:07.308',0.940,-0.900
'5:07.311',1.115,-0.960
'5:07.314',1.260,-1.020
'5:07.317',1.385,-1.035
'5:07.319',1.540,-1.035
'5:07.322',1.705,-1.025
'5:07.325',1.800,-1.015
'5:07.328',1.825,-1.025
'5:07.331',1.805,-1.035
'5:07.333',1.735,-1.015
'5:07.336',1.580,-0.970
'5:07.339',1.340,-0.920
'5:07.342',1.055,-0.885
'5:07.344',0.770,-0.840
'5:07.347',0.580,-0.805
'5:07.350',0.450,-0.750
'5:07.353',0.400,-0.675
'5:07.356',0.410,-0.610
'5:07.358',0.410,-0.550
'5:07.361',0.385,-0.525
'5:07.364',0.345,-0.460
'5:07.367',0.315,-0.385
'5:07.369',0.270,-0.310
'5:07.372',0.245,-0.255
'5:07.375',0.195,-0.210
'5:07.378',0.145,-0.170
'5:07.381',0.100,-0.155
'5:07.383',0.055,-0.115
'5:07.386',0.050,-0.035
'5:07.389',0.030,0.010
'5:07.392',-0.005,0.040
'5:07.394',-0.060,0.065
'5:07.397',-0.105,0.095
'5:07.400',-0.135,0.130
'5:07.403',-0.165,0.195
'5:07.406',-0.205,0.225
'5:07.408',-0.240,0.240
'5:07.411',-0.300,0.270
'5:07.414',-0.330,0.280
'5:07.417',-0.350,0.300
'5:07.419',-0.365,0.340
'5:07.422',-0.360,0.355
'5:07.425',-0.395,0.350
'5:07.428',-0.405,0.355
'5:07.431',-0.405,0.355
'5:07.433',-0.415,0.370
'5:07.436',-0.415,0.395
'5:07.439',-0.425,0.405
'5:07.442',-0.435,0.410
'5:07.444',-0.450,0.415
'5:07.447',-0.450,0.405
'5:07.450',-0.450,0.430
'5:07.453',-0.450,0.445
'5:07.456',-0.435,0.470
'5:07.458',-0.420,0.470
'5:07.461',-0.450,0.480
'5:07.464',-0.470,0.490
'5:07.467',-0.485,0.495
'5:07.469',-0.465,0.515
'5:07.472',-0.460,0.540
'5:07.475',-0.440,0.550
'5:07.478',-0.465,0.540
'5:07.481',-0.490,0.530
'5:07.483',-0.495,0.560
'5:07.486',-0.495,0.595
'5:07.489',-0.490,0.615
'5:07.492',-0.490,0.635
'5:07.494',-0.505,0.635
'5:07.497',-0.545,0.620
'5:07.500',-0.555,0.645
'5:07.503',-0.560,0.685
'5:07.506',-0.545,0.730
'5:07.508',-0.540,0.715
'5:07.511',-0.560,0.730
'5:07.514',-0.580,0.740
'5:07.517',-0.595,0.760
'5:07.519',-0.615,0.795
'5:07.522',-0.605,0.810
'5:07.525',-0.610,0.820
'5:07.528',-0.620,0.810
'5:07.531',-0.635,0.825
'5:07.533',-0.640,0.835
'5:07.536',-0.645,0.885
'5:07.539',-0.640,0.885
'5:07.542',-0.660,0.880
'5:07.544',-0.675,0.870
'5:07.547',-0.690,0.855
'5:07.550',-0.700,0.895
'5:07.553',-0.705,0.915
'5:07.556',-0.705,0.925
'5:07.558',-0.710,0.915
'5:07.561',-0.730,0.905
'5:07.564',-0.730,0.865
'5:07.567',-0.730,0.875
'5:07.569',-0.720,0.875
'5:07.572',-0.700,0.870
'5:07.575',-0.710,0.855
'5:07.578',-0.725,0.830
'5:07.581',-0.735,0.795
'5:07.583',-0.735,0.780
'5:07.586',-0.705,0.770
'5:07.589',-0.675,0.770
'5:07.592',-0.650,0.710
'5:07.594',-0.635,0.665
'5:07.597',-0.640,0.635
'5:07.600',-0.615,0.600
'5:07.603',-0.575,0.575
'5:07.606',-0.535,0.585
'5:07.608',-0.500,0.530
'5:07.611',-0.480,0.475
'5:07.614',-0.470,0.425
'5:07.617',-0.435,0.400
'5:07.619',-0.420,0.400
'5:07.622',-0.360,0.370
'5:07.625',-0.340,0.355
'5:07.628',-0.330,0.325
'5:07.631',-0.305,0.300
'5:07.633',-0.290,0.290
'5:07.636',-0.275,0.280
'5:07.639',-0.245,0.295
'5:07.642',-0.240,0.255
'5:07.644',-0.230,0.230
'5:07.647',-0.245,0.205
'5:07.650',-0.230,0.200
'5:07.653',-0.200,0.200
'5:07.656',-0.190,0.210
'5:07.658',-0.185,0.200
'5:07.661',-0.195,0.155
'5:07.664',-0.210,0.135
'5:07.667',-0.205,0.145
'5:07.669',-0.200,0.150
'5:07.672',-0.165,0.155
'5:07.675',-0.160,0.150
'5:07.678',-0.170,0.140
'5:07.681',-0.195,0.130
'5:07.683',-0.210,0.135
'5:07.686',-0.195,0.135
'5:07.689',-0.175,0.150
'5:07.692',-0.175,0.125
'5:07.694',-0.170,0.110
'5:07.697',-0.200,0.100
'5:07.700',-0.190,0.110
'5:07.703',-0.180,0.125
'5:07.706',-0.180,0.155
'5:07.708',-0.185,0.140
'5:07.711',-0.205,0.120
'5:07.714',-0.220,0.100
'5:07.717',-0.205,0.110
'5:07.719',-0.205,0.130
'5:07.722',-0.185,0.135
'5:07.725',-0.185,0.130
'5:07.728',-0.190,0.130
'5:07.731',-0.225,0.115
'5:07.733',-0.220,0.125
'5:07.736',-0.210,0.125
'5:07.739',-0.205,0.155
'5:07.742',-0.200,0.140
'5:07.744',-0.215,0.120
'5:07.747',-0.220,0.115
'5:07.750',-0.235,0.115
'5:07.753',-0.210,0.130
'5:07.756',-0.205,0.150
'5:07.758',-0.195,0.145
'5:07.761',-0.215,0.120
'5:07.764',-0.225,0.100
'5:07.767',-0.220,0.110
'5:07.769',-0.220,0.130
'5:07.772',-0.220,0.145
'5:07.775',-0.210,0.135
'5:07.778',-0.220,0.125
'5:07.781',-0.240,0.105
'5:07.783',-0.225,0.115
'5:07.786',-0.230,0.135
'5:07.789',-0.220,0.145
'5:07.792',-0.220,0.130
'5:07.794',-0.235,0.115
'5:07.797',-0.240,0.110
'5:07.800',-0.225,0.120
'5:07.803',-0.215,0.130
'5:07.806',-0.205,0.140
'5:07.808',-0.205,0.130
'5:07.811',-0.235,0.120
'5:07.814',-0.255,0.105
'5:07.817',-0.250,0.105
'5:07.819',-0.225,0.120
'5:07.822',-0.210,0.135
'5:07.825',-0.205,0.130
'5:07.828',-0.210,0.110
'5:07.831',-0.230,0.100
'5:07.833',-0.230,0.100
'5:07.836',-0.220,0.100
'5:07.839',-0.205,0.125
'5:07.842',-0.200,0.110
'5:07.844',-0.200,0.100
'5:07.847',-0.215,0.090
'5:07.850',-0.220,0.110
'5:07.853',-0.220,0.115
'5:07.856',-0.205,0.125
'5:07.858',-0.205,0.120
'5:07.861',-0.225,0.090
'5:07.864',-0.225,0.070
'5:07.867',-0.225,0.085
'5:07.869',-0.215,0.095
'5:07.872',-0.185,0.100
'5:07.875',-0.180,0.105
'5:07.878',-0.195,0.080
'5:07.881',-0.220,0.060
'5:07.883',-0.225,0.065
'5:07.886',-0.215,0.075
'5:07.889',-0.190,0.080
'5:07.892',-0.180,0.080
'5:07.894',-0.210,0.080
'5:07.897',-0.195,0.055
'5:07.900',-0.210,0.060
'5:07.903',-0.195,0.090
'5:07.906',-0.165,0.090
'5:07.908',-0.160,0.070
'5:07.911',-0.150,0.050
'5:07.914',-0.170,0.045
'5:07.917',-0.160,0.050
'5:07.919',-0.150,0.070
'5:07.922',-0.135,0.075
'5:07.925',-0.135,0.070
'5:07.928',-0.160,0.065
'5:07.931',-0.170,0.060
'5:07.933',-0.165,0.055
'5:07.936',-0.140,0.085
'5:07.939',-0.135,0.090
'5:07.942',-0.125,0.075
'5:07.944',-0.140,0.055
'5:07.947',-0.135,0.045
'5:07.950',-0.135,0.045
'5:07.953',-0.110,0.050
'5:07.956',-0.090,0.060
'5:07.958',-0.095,0.050
'5:07.961',-0.120,0.025
'5:07.964',-0.140,0.020
'5:07.967',-0.145,0.010
'5:07.969',-0.125,0.030
'5:07.972',-0.120,0.030
'5:07.975',-0.110,0.035
'5:07.978',-0.115,0.015
'5:07.981',-0.140,0.030
'5:07.983',-0.145,0.010
'5:07.986',-0.130,0.040
'5:07.989',-0.140,0.045
'5:07.992',-0.145,0.020
'5:07.994',-0.160,0.015
'5:07.997',-0.180,0.015
'5:08.000',-0.185,-0.010
'5:08.003',-0.170,0.025
'5:08.006',-0.175,0.035
'5:08.008',-0.190,0.015
'5:08.011',-0.190,-0.005
'5:08.014',-0.215,-0.015
'5:08.017',-0.230,-0.020
'5:08.019',-0.210,0.005
'5:08.022',-0.190,0.025
'5:08.025',-0.180,0.015
'5:08.028',-0.185,0.015
'5:08.031',-0.200,-0.010
'5:08.033',-0.200,0.005
'5:08.036',-0.215,0.010
'5:08.039',-0.205,0.040
'5:08.042',-0.210,0.015
'5:08.044',-0.215,0.005
'5:08.047',-0.230,0.005
'5:08.050',-0.220,-0.005
'5:08.053',-0.200,0.015
'5:08.056',-0.190,0.010
'5:08.058',-0.190,0.020
'5:08.061',-0.210,0.010
'5:08.064',-0.220,-0.005
'5:08.067',-0.230,0.000
'5:08.069',-0.215,0.005
'5:08.072',-0.185,0.015
'5:08.075',-0.175,0.015
'5:08.078',-0.180,0.015
'5:08.081',-0.195,0.040
'5:08.083',-0.205,0.055
'5:08.086',-0.210,0.090
'5:08.089',-0.200,0.105
'5:08.092',-0.215,0.090
'5:08.094',-0.210,0.050
'5:08.097',-0.200,-0.030
'5:08.100',-0.120,-0.100
'5:08.103',-0.005,-0.185
'5:08.106',0.110,-0.280
'5:08.108',0.225,-0.400
'5:08.111',0.310,-0.540
'5:08.114',0.405,-0.650
'5:08.117',0.500,-0.725
'5:08.119',0.650,-0.815
'5:08.122',0.805,-0.880
'5:08.125',0.970,-0.930
'5:08.128',1.150,-1.000
'5:08.131',1.325,-1.050
'5:08.133',1.520,-1.065
'5:08.136',1.715,-1.060
'5:08.139',1.855,-1.065
'5:08.142',1.920,-1.055
'5:08.144',1.930,-1.065
'5:08.147',1.920,-1.060
'5:08.150',1.885,-1.040
'5:08.153',1.825,-1.030
'5:08.156',1.665,-1.000
'5:08.158',1.400,-0.960
'5:08.161',1.055,-0.935
'5:08.164',0.770,-0.905
'5:08.167',0.585,-0.865
'5:08.169',0.485,-0.790
'5:08.172',0.420,-0.715
'5:08.175',0.410,-0.655
'5:08.178',0.380,-0.595
'5:08.181',0.340,-0.545
'5:08.183',0.300,-0.475
'5:08.186',0.300,-0.415
'5:08.189',0.280,-0.360
'5:08.192',0.250,-0.350
'5:08.194',0.195,-0.330
'5:08.197',0.145,-0.290
'5:08.200',0.095,-0.260
'5:08.203',0.085,-0.215
'5:08.206',0.065,-0.150
'5:08.208',0.045,-0.110
'5:08.211',0.000,-0.075
'5:08.214',-0.035,-0.055
'5:08.217',-0.075,-0.005
'5:08.219',-0.100,0.040
'5:08.222',-0.125,0.085
'5:08.225',-0.155,0.105
'5:08.228',-0.200,0.115
'5:08.231',-0.250,0.150
'5:08.233',-0.285,0.195
'5:08.236',-0.295,0.220
'5:08.239',-0.305,0.255
'5:08.242',-0.345,0.265
'5:08.244',-0.365,0.260
'5:08.247',-0.405,0.260
'5:08.250',-0.425,0.275
'5:08.253',-0.405,0.290
'5:08.256',-0.400,0.325
'5:08.258',-0.390,0.315
'5:08.261',-0.400,0.305
'5:08.264',-0.425,0.315
'5:08.267',-0.430,0.330
'5:08.269',-0.425,0.350
'5:08.272',-0.420,0.375
'5:08.275',-0.435,0.370
'5:08.278',-0.445,0.370
'5:08.281',-0.450,0.360
'5:08.283',-0.460,0.385
'5:08.286',-0.435,0.395
'5:08.289',-0.430,0.430
'5:08.292',-0.445,0.425
'5:08.294',-0.480,0.420
'5:08.297',-0.495,0.430
'5:08.300',-0.505,0.435
'5:08.303',-0.475,0.465
'5:08.306',-0.465,0.490
'5:08.308',-0.470,0.475
'5:08.311',-0.470,0.475
'5:08.314',-0.500,0.470
'5:08.317',-0.510,0.500
'5:08.319',-0.495,0.525
'5:08.322',-0.500,0.565
'5:08.325',-0.490,0.550
'5:08.328',-0.500,0.555
'5:08.331',-0.520,0.550
'5:08.333',-0.525,0.595
'5:08.336',-0.525,0.615
'5:08.339',-0.525,0.650
'5:08.342',-0.535,0.650
'5:08.344',-0.565,0.650
'5:08.347',-0.570,0.660
'5:08.350',-0.570,0.685
'5:08.353',-0.565,0.700
'5:08.356',-0.580,0.725
'5:08.358',-0.580,0.740
'5:08.361',-0.605,0.715
'5:08.364',-0.620,0.730
'5:08.367',-0.635,0.735
'5:08.369',-0.630,0.775
'5:08.372',-0.630,0.795
'5:08.375',-0.640,0.795
'5:08.378',-0.650,0.785
'5:08.381',-0.670,0.775
'5:08.383',-0.675,0.800
'5:08.386',-0.685,0.815
'5:08.389',-0.675,0.830
'5:08.392',-0.690,0.825
'5:08.394',-0.690,0.815
'5:08.397',-0.700,0.785
'5:08.400',-0.735,0.790
'5:08.403',-0.730,0.795
'5:08.406',-0.700,0.805
'5:08.408',-0.700,0.775
'5:08.411',-0.695,0.750
'5:08.414',-0.695,0.730
'5:08.417',-0.690,0.690
'5:08.419',-0.680,0.710
'5:08.422',-0.670,0.705
'5:08.425',-0.660,0.685
'5:08.428',-0.675,0.640
'5:08.431',-0.670,0.620
'5:08.433',-0.655,0.580
'5:08.436',-0.615,0.555
'5:08.439',-0.575,0.550
'5:08.442',-0.545,0.505
'5:08.444',-0.550,0.460
'5:08.447',-0.540,0.425
'5:08.450',-0.535,0.405
'5:08.453',-0.475,0.390
'5:08.456',-0.440,0.355
'5:08.458',-0.410,0.335
'5:08.461',-0.375,0.295
'5:08.464',-0.355,0.250
'5:08.467',-0.340,0.245
'5:08.469',-0.340,0.245
'5:08.472',-0.295,0.230
'5:08.475',-0.255,0.215
'5:08.478',-0.255,0.175
'5:08.481',-0.250,0.150
'5:08.483',-0.240,0.140
'5:08.486',-0.225,0.135
'5:08.489',-0.210,0.135
'5:08.492',-0.195,0.115
'5:08.494',-0.200,0.090
'5:08.497',-0.215,0.070
'5:08.500',-0.205,0.075
'5:08.503',-0.195,0.095
'5:08.506',-0.170,0.090
'5:08.508',-0.160,0.070
'5:08.511',-0.175,0.055
'5:08.514',-0.195,0.050
'5:08.517',-0.195,0.060
'5:08.519',-0.175,0.070
'5:08.522',-0.165,0.080
'5:08.525',-0.160,0.060
'5:08.528',-0.170,0.035
'5:08.531',-0.195,0.025
'5:08.533',-0.195,0.035
'5:08.536',-0.185,0.045
'5:08.539',-0.185,0.060
'5:08.542',-0.185,0.055
'5:08.544',-0.185,0.040
'5:08.547',-0.205,0.025
'5:08.550',-0.200,0.040
'5:08.553',-0.195,0.055
'5:08.556',-0.195,0.065
'5:08.558',-0.195,0.055
'5:08.561',-0.210,0.055
'5:08.564',-0.205,0.025
'5:08.567',-0.205,0.045
'5:08.569',-0.190,0.070
'5:08.572',-0.180,0.060
'5:08.575',-0.190,0.065
'5:08.578',-0.205,0.045
'5:08.581',-0.220,0.035
'5:08.583',-0.210,0.050
'5:08.586',-0.190,0.060
'5:08.589',-0.180,0.085
'5:08.592',-0.175,0.065
'5:08.594',-0.185,0.070
'5:08.597',-0.210,0.050
'5:08.600',-0.230,0.050
'5:08.603',-0.220,0.075
'5:08.606',-0.205,0.075
'5:08.608',-0.195,0.080
'5:08.611',-0.200,0.065
'5:08.614',-0.210,0.065
'5:08.617',-0.230,0.065
'5:08.619',-0.215,0.085
'5:08.622',-0.215,0.085
'5:08.625',-0.215,0.080
'5:08.628',-0.210,0.060
'5:08.631',-0.220,0.050
'5:08.633',-0.220,0.050
'5:08.636',-0.215,0.070
'5:08.639',-0.190,0.100
'5:08.642',-0.200,0.085
'5:08.644',-0.220,0.065
'5:08.647',-0.225,0.065
'5:08.650',-0.235,0.065
'5:08.653',-0.225,0.070
'5:08.656',-0.205,0.085
'5:08.658',-0.200,0.075
'5:08.661',-0.205,0.055
'5:08.664',-0.225,0.050
'5:08.667',-0.230,0.065
'5:08.669',-0.215,0.075
'5:08.672',-0.215,0.080
'5:08.675',-0.210,0.055
'5:08.678',-0.215,0.040
'5:08.681',-0.215,0.035
'5:08.683',-0.230,0.055
'5:08.686',-0.220,0.060
'5:08.689',-0.210,0.075
'5:08.692',-0.215,0.060
'5:08.694',-0.200,0.045
'5:08.697',-0.215,0.025
'5:08.700',-0.200,0.035
'5:08.703',-0.195,0.055
'5:08.706',-0.185,0.050
'5:08.708',-0.185,0.035
'5:08.711',-0.190,0.030
'5:08.714',-0.215,0.025
'5:08.717',-0.210,0.035
'5:08.719',-0.190,0.040
'5:08.722',-0.185,0.050
'5:08.725',-0.180,0.030
'5:08.728',-0.180,0.025
'5:08.731',-0.210,0.005
'5:08.733',-0.210,0.020
'5:08.736',-0.200,0.025
'5:08.739',-0.170,0.035
'5:08.742',-0.160,0.035
'5:08.744',-0.185,0.020
'5:08.747',-0.190,0.000
'5:08.750',-0.190,0.005
'5:08.753',-0.205,0.020
'5:08.756',-0.190,0.040
'5:08.758',-0.185,0.025
'5:08.761',-0.190,0.005
'5:08.764',-0.190,0.005
'5:08.767',-0.185,0.000
'5:08.769',-0.175,0.010
'5:08.772',-0.165,0.020
'5:08.775',-0.145,0.025
'5:08.778',-0.145,0.000
'5:08.781',-0.150,0.005
'5:08.783',-0.135,0.010
'5:08.786',-0.125,0.020
'5:08.789',-0.110,0.050
'5:08.792',-0.125,0.030
'5:08.794',-0.135,0.035
'5:08.797',-0.140,0.015
'5:08.800',-0.135,0.020
'5:08.803',-0.130,0.035
'5:08.806',-0.110,0.050
'5:08.808',-0.090,0.035
'5:08.811',-0.090,0.020
'5:08.814',-0.110,0.000
'5:08.817',-0.110,-0.010
'5:08.819',-0.100,0.020
'5:08.822',-0.105,0.015
'5:08.825',-0.105,0.005
'5:08.828',-0.095,-0.010
'5:08.831',-0.105,-0.015
'5:08.833',-0.105,0.000
'5:08.836',-0.105,0.005
'5:08.839',-0.095,0.015
'5:08.842',-0.105,0.000
'5:08.844',-0.130,-0.020
'5:08.847',-0.140,-0.030
'5:08.850',-0.145,-0.025
'5:08.853',-0.135,-0.015
'5:08.856',-0.125,0.000
'5:08.858',-0.135,-0.010
'5:08.861',-0.155,-0.035
'5:08.864',-0.175,-0.040
'5:08.867',-0.185,-0.030
'5:08.869',-0.175,-0.015
'5:08.872',-0.170,-0.015
'5:08.875',-0.165,-0.025
'5:08.878',-0.175,-0.020
'5:08.881',-0.190,-0.045
'5:08.883',-0.180,-0.045
'5:08.886',-0.175,-0.025
'5:08.889',-0.185,-0.010
'5:08.892',-0.165,-0.020
'5:08.894',-0.180,-0.025
'5:08.897',-0.190,-0.040
'5:08.900',-0.190,-0.035
'5:08.903',-0.190,-0.015
'5:08.906',-0.185,-0.025
'5:08.908',-0.200,-0.025
'5:08.911',-0.190,-0.040
'5:08.914',-0.205,-0.040
'5:08.917',-0.195,-0.035
'5:08.919',-0.180,-0.025
'5:08.922',-0.165,0.000
'5:08.925',-0.155,-0.015
'5:08.928',-0.185,-0.030
'5:08.931',-0.190,-0.030
'5:08.933',-0.210,-0.025
'5:08.936',-0.190,0.000
'5:08.939',-0.155,0.030
'5:08.942',-0.160,0.050
'5:08.944',-0.170,0.025
'5:08.947',-0.200,0.000
'5:08.950',-0.205,-0.050
'5:08.953',-0.155,-0.085
'5:08.956',-0.050,-0.180
'5:08.958',0.070,-0.285
'5:08.961',0.175,-0.420
'5:08.964',0.265,-0.535
'5:08.967',0.345,-0.610
'5:08.969',0.410,-0.680
'5:08.972',0.515,-0.745
'5:08.975',0.590,-0.820
'5:08.978',0.645,-0.910
'5:08.981',0.720,-0.985
'5:08.983',0.830,-1.055
'5:08.986',0.980,-1.060
'5:08.989',1.145,-1.090
'5:08.992',1.345,-1.125
'5:08.994',1.530,-1.125
'5:08.997',1.685,-1.115
'5:09.000',1.805,-1.085
'5:09.003',1.895,-1.050
'5:09.006',1.900,-1.025
'5:09.008',1.850,-0.995
'5:09.011',1.670,-1.010
'5:09.014',1.425,-0.975
'5:09.017',1.120,-0.915
'5:09.019',0.875,-0.865
'5:09.022',0.710,-0.825
'5:09.025',0.590,-0.790
'5:09.028',0.525,-0.760
'5:09.031',0.470,-0.725
'5:09.033',0.460,-0.650
'5:09.036',0.465,-0.575
'5:09.039',0.465,-0.505
'5:09.042',0.435,-0.445
'5:09.044',0.390,-0.420
'5:09.047',0.335,-0.385
'5:09.050',0.295,-0.330
'5:09.053',0.255,-0.260
'5:09.056',0.225,-0.225
'5:09.058',0.200,-0.185
'5:09.061',0.140,-0.145
'5:09.064',0.090,-0.125
'5:09.067',0.030,-0.080
'5:09.069',0.005,-0.015
'5:09.072',-0.020,0.025
'5:09.075',-0.040,0.045
'5:09.078',-0.100,0.065
'5:09.081',-0.145,0.090
'5:09.083',-0.180,0.140
'5:09.086',-0.220,0.180
'5:09.089',-0.250,0.195
'5:09.092',-0.280,0.215
'5:09.094',-0.310,0.225
'5:09.097',-0.340,0.245
'5:09.100',-0.335,0.270
'5:09.103',-0.360,0.300
'5:09.106',-0.365,0.310
'5:09.108',-0.385,0.315
'5:09.111',-0.410,0.310
'5:09.114',-0.430,0.320
'5:09.117',-0.435,0.345
'5:09.119',-0.430,0.360
'5:09.122',-0.415,0.380
'5:09.125',-0.395,0.380
'5:09.128',-0.430,0.375
'5:09.131',-0.440,0.380
'5:09.133',-0.455,0.380
'5:09.136',-0.445,0.400
'5:09.139',-0.440,0.430
'5:09.142',-0.445,0.430
'5:09.144',-0.465,0.420
'5:09.147',-0.475,0.415
'5:09.150',-0.480,0.450
'5:09.153',-0.485,0.470
'5:09.156',-0.460,0.495
'5:09.158',-0.465,0.490
'5:09.161',-0.480,0.480
'5:09.164',-0.505,0.475
'5:09.167',-0.505,0.510
'5:09.169',-0.495,0.530
'5:09.172',-0.490,0.565
'5:09.175',-0.505,0.575
'5:09.178',-0.525,0.560
'5:09.181',-0.530,0.570
'5:09.183',-0.545,0.580
'5:09.186',-0.535,0.615
'5:09.189',-0.535,0.650
'5:09.192',-0.530,0.650
'5:09.194',-0.555,0.655
'5:09.197',-0.580,0.645
'5:09.200',-0.595,0.660
'5:09.203',-0.595,0.680
'5:09.206',-0.590,0.715
'5:09.208',-0.590,0.720
'5:09.211',-0.605,0.725
'5:09.214',-0.625,0.720
'5:09.217',-0.635,0.755
'5:09.219',-0.645,0.775
'5:09.222',-0.640,0.795
'5:09.225',-0.650,0.815
'5:09.228',-0.670,0.795
'5:09.231',-0.710,0.800
'5:09.233',-0.710,0.815
'5:09.236',-0.685,0.835
'5:09.239',-0.705,0.850
'5:09.242',-0.710,0.855
'5:09.244',-0.715,0.835
'5:09.247',-0.750,0.825
'5:09.250',-0.745,0.835
'5:09.253',-0.740,0.845
'5:09.256',-0.735,0.855
'5:09.258',-0.725,0.835
'5:09.261',-0.755,0.805
'5:09.264',-0.760,0.785
'5:09.267',-0.750,0.795
'5:09.269',-0.735,0.775
'5:09.272',-0.730,0.770
'5:09.275',-0.715,0.755
'5:09.278',-0.710,0.715
'5:09.281',-0.725,0.670
'5:09.283',-0.720,0.665
'5:09.286',-0.690,0.640
'5:09.289',-0.665,0.630
'5:09.292',-0.630,0.590
'5:09.294',-0.615,0.550
'5:09.297',-0.605,0.515
'5:09.300',-0.580,0.500
'5:09.303',-0.540,0.495
'5:09.306',-0.515,0.465
'5:09.308',-0.490,0.425
'5:09.311',-0.470,0.385
'5:09.314',-0.465,0.340
'5:09.317',-0.440,0.305
'5:09.319',-0.385,0.295
'5:09.322',-0.340,0.285
'5:09.325',-0.320,0.250
'5:09.328',-0.310,0.205
'5:09.331',-0.305,0.185
'5:09.333',-0.290,0.175
'5:09.336',-0.270,0.180
'5:09.339',-0.235,0.185
'5:09.342',-0.210,0.150
'5:09.344',-0.230,0.135
'5:09.347',-0.255,0.115
'5:09.350',-0.240,0.125
'5:09.353',-0.225,0.125
'5:09.356',-0.210,0.130
'5:09.358',-0.195,0.100
'5:09.361',-0.215,0.080
'5:09.364',-0.225,0.065
'5:09.367',-0.215,0.080
'5:09.369',-0.205,0.095
'5:09.372',-0.195,0.095
'5:09.375',-0.190,0.090
'5:09.378',-0.200,0.080
'5:09.381',-0.205,0.065
'5:09.383',-0.210,0.060
'5:09.386',-0.205,0.070
'5:09.389',-0.195,0.090
'5:09.392',-0.190,0.085
'5:09.394',-0.205,0.070
'5:09.397',-0.230,0.050
'5:09.400',-0.220,0.050
'5:09.403',-0.195,0.065
'5:09.406',-0.185,0.075
'5:09.408',-0.185,0.070
'5:09.411',-0.195,0.035
'5:09.414',-0.210,0.045
'5:09.417',-0.225,0.040
'5:09.419',-0.215,0.070
'5:09.422',-0.195,0.085
'5:09.425',-0.190,0.080
'5:09.428',-0.215,0.065
'5:09.431',-0.225,0.050
'5:09.433',-0.240,0.055
'5:09.436',-0.230,0.070
'5:09.439',-0.225,0.095
'5:09.442',-0.230,0.080
'5:09.444',-0.230,0.065
'5:09.447',-0.245,0.075
'5:09.450',-0.245,0.060
'5:09.453',-0.245,0.070
'5:09.456',-0.230,0.090
'5:09.458',-0.235,0.075
'5:09.461',-0.245,0.065
'5:09.464',-0.260,0.050
'5:09.467',-0.270,0.055
'5:09.469',-0.235,0.075
'5:09.472',-0.225,0.095
'5:09.475',-0.225,0.090
'5:09.478',-0.240,0.065
'5:09.481',-0.250,0.055
'5:09.483',-0.255,0.070
'5:09.486',-0.250,0.080
'5:09.489',-0.235,0.090
'5:09.492',-0.230,0.080
'5:09.494',-0.240,0.070
'5:09.497',-0.255,0.060
'5:09.500',-0.260,0.060
'5:09.503',-0.250,0.065
'5:09.506',-0.245,0.090
'5:09.508',-0.225,0.085
'5:09.511',-0.235,0.075
'5:09.514',-0.245,0.065
'5:09.517',-0.240,0.065
'5:09.519',-0.235,0.085
'5:09.522',-0.230,0.075
'5:09.525',-0.210,0.060
'5:09.528',-0.225,0.060
'5:09.531',-0.250,0.045
'5:09.533',-0.255,0.050
'5:09.536',-0.240,0.065
'5:09.539',-0.230,0.090
'5:09.542',-0.235,0.060
'5:09.544',-0.225,0.040
'5:09.547',-0.245,0.035
'5:09.550',-0.235,0.035
'5:09.553',-0.225,0.055
'5:09.556',-0.220,0.050
'5:09.558',-0.215,0.040
'5:09.561',-0.230,0.025
'5:09.564',-0.230,0.010
'5:09.567',-0.230,0.020
'5:09.569',-0.230,0.030
'5:09.572',-0.205,0.045
'5:09.575',-0.200,0.030
'5:09.578',-0.210,0.030
'5:09.581',-0.230,0.010
'5:09.583',-0.235,0.020
'5:09.586',-0.240,0.025
'5:09.589',-0.225,0.040
'5:09.592',-0.205,0.015
'5:09.594',-0.210,0.005
'5:09.597',-0.225,0.000
'5:09.600',-0.245,-0.015
'5:09.603',-0.225,0.015
'5:09.606',-0.200,0.025
'5:09.608',-0.190,0.035
'5:09.611',-0.205,0.025
'5:09.614',-0.210,0.020
'5:09.617',-0.210,0.020
'5:09.619',-0.205,0.015
'5:09.622',-0.185,0.040
'5:09.625',-0.180,0.015
'5:09.628',-0.175,0.015
'5:09.631',-0.210,0.015
'5:09.633',-0.210,0.020
'5:09.636',-0.185,0.045
'5:09.639',-0.145,0.055
'5:09.642',-0.150,0.050
'5:09.644',-0.155,0.040
'5:09.647',-0.190,0.045
'5:09.650',-0.190,0.045
'5:09.653',-0.170,0.065
'5:09.656',-0.135,0.065
'5:09.658',-0.130,0.065
'5:09.661',-0.145,0.070
'5:09.664',-0.150,0.040
'5:09.667',-0.150,0.050
'5:09.669',-0.125,0.055
'5:09.672',-0.125,0.055
'5:09.675',-0.125,0.030
'5:09.678',-0.145,0.005
'5:09.681',-0.140,-0.005
'5:09.683',-0.145,0.000
'5:09.686',-0.135,0.010
'5:09.689',-0.125,0.000
'5:09.692',-0.135,-0.005
'5:09.694',-0.160,-0.025
'5:09.697',-0.180,-0.050
'5:09.700',-0.175,-0.035
'5:09.703',-0.175,-0.035
'5:09.706',-0.155,-0.015
'5:09.708',-0.170,-0.025
'5:09.711',-0.195,-0.040
'5:09.714',-0.215,-0.055
'5:09.717',-0.240,-0.050
'5:09.719',-0.210,-0.040
'5:09.722',-0.200,-0.035
'5:09.725',-0.195,-0.045
'5:09.728',-0.195,-0.055
'5:09.731',-0.220,-0.070
'5:09.733',-0.230,-0.055
'5:09.736',-0.205,-0.050
'5:09.739',-0.180,-0.025
'5:09.742',-0.180,-0.045
'5:09.744',-0.190,-0.050
'5:09.747',-0.215,-0.060
'5:09.750',-0.225,-0.050
'5:09.753',-0.220,-0.045
'5:09.756',-0.185,-0.015
'5:09.758',-0.195,-0.035
'5:09.761',-0.185,-0.060
'5:09.764',-0.205,-0.075
'5:09.767',-0.205,-0.065
'5:09.769',-0.210,-0.055
'5:09.772',-0.210,-0.040
'5:09.775',-0.195,-0.055
'5:09.778',-0.195,-0.045
'5:09.781',-0.200,-0.055
'5:09.783',-0.200,-0.040
'5:09.786',-0.170,-0.015
'5:09.789',-0.170,0.015
'5:09.792',-0.160,0.010
'5:09.794',-0.190,-0.025
'5:09.797',-0.200,-0.065
'5:09.800',-0.145,-0.095
'5:09.803',-0.035,-0.165
'5:09.806',0.105,-0.260
'5:09.808',0.215,-0.350
'5:09.811',0.295,-0.465
'5:09.814',0.370,-0.570
'5:09.817',0.460,-0.645
'5:09.819',0.550,-0.700
'5:09.822',0.655,-0.765
'5:09.825',0.750,-0.865
'5:09.828',0.865,-0.955
'5:09.831',0.990,-1.035
'5:09.833',1.170,-1.075
'5:09.836',1.360,-1.100
'5:09.839',1.555,-1.120
'5:09.842',1.720,-1.135
'5:09.844',1.845,-1.175
'5:09.847',1.890,-1.165
'5:09.850',1.880,-1.150
'5:09.853',1.800,-1.125
'5:09.856',1.640,-1.105
'5:09.858',1.355,-1.090
'5:09.861',1.040,-1.075
'5:09.864',0.755,-1.045
'5:09.867',0.555,-1.010
'5:09.869',0.465,-0.945
'5:09.872',0.435,-0.875
'5:09.875',0.420,-0.825
'5:09.878',0.410,-0.765
'5:09.881',0.375,-0.670
'5:09.883',0.355,-0.595
'5:09.886',0.340,-0.495
'5:09.889',0.295,-0.435
'5:09.892',0.255,-0.385
'5:09.894',0.190,-0.360
'5:09.897',0.140,-0.305
'5:09.900',0.100,-0.265
'5:09.903',0.070,-0.185
'5:09.906',0.045,-0.120
'5:09.908',0.010,-0.085
'5:09.911',-0.045,-0.080
'5:09.914',-0.090,-0.040
'5:09.917',-0.125,-0.010
'5:09.919',-0.165,0.045
'5:09.922',-0.190,0.090
'5:09.925',-0.225,0.110
'5:09.928',-0.265,0.120
'5:09.931',-0.300,0.145
'5:09.933',-0.330,0.155
'5:09.936',-0.345,0.210
'5:09.939',-0.355,0.225
'5:09.942',-0.355,0.235
'5:09.944',-0.370,0.235
'5:09.947',-0.400,0.245
'5:09.950',-0.410,0.255
'5:09.953',-0.405,0.270
'5:09.956',-0.395,0.300
'5:09.958',-0.415,0.285
'5:09.961',-0.425,0.290
'5:09.964',-0.440,0.290
'5:09.967',-0.445,0.320
'5:09.969',-0.445,0.330
'5:09.972',-0.435,0.360
'5:09.975',-0.435,0.360
'5:09.978',-0.435,0.355
'5:09.981',-0.450,0.340
'5:09.983',-0.460,0.360
'5:09.986',-0.450,0.375
'5:09.989',-0.435,0.405
'5:09.992',-0.450,0.405
'5:09.994',-0.450,0.405
'5:09.997',-0.485,0.415
'5:10.000',-0.485,0.445
'5:10.003',-0.465,0.450
'5:10.006',-0.475,0.480
'5:10.008',-0.485,0.485
'5:10.011',-0.500,0.475
'5:10.014',-0.520,0.485
'5:10.017',-0.525,0.510
'5:10.019',-0.520,0.535
'5:10.022',-0.520,0.555
'5:10.025',-0.520,0.570
'5:10.028',-0.550,0.560
'5:10.031',-0.565,0.570
'5:10.033',-0.570,0.580
'5:10.036',-0.570,0.605
'5:10.039',-0.570,0.630
'5:10.042',-0.580,0.635
'5:10.044',-0.580,0.640
'5:10.047',-0.600,0.645
'5:10.050',-0.595,0.675
'5:10.053',-0.600,0.695
'5:10.056',-0.600,0.725
'5:10.058',-0.610,0.735
'5:10.061',-0.635,0.710
'5:10.064',-0.660,0.720
'5:10.067',-0.670,0.735
'5:10.069',-0.660,0.765
'5:10.072',-0.660,0.785
'5:10.075',-0.680,0.775
'5:10.078',-0.680,0.760
'5:10.081',-0.700,0.745
'5:10.083',-0.730,0.755
'5:10.086',-0.710,0.745
'5:10.089',-0.695,0.780
'5:10.092',-0.695,0.765
'5:10.094',-0.710,0.735
'5:10.097',-0.725,0.695
'5:10.100',-0.735,0.715
'5:10.103',-0.710,0.715
'5:10.106',-0.705,0.705
'5:10.108',-0.680,0.680
'5:10.111',-0.685,0.635
'5:10.114',-0.680,0.605
'5:10.117',-0.680,0.575
'5:10.119',-0.660,0.565
'5:10.122',-0.625,0.545
'5:10.125',-0.605,0.505
'5:10.128',-0.590,0.460
'5:10.131',-0.575,0.425
'5:10.133',-0.550,0.410
'5:10.136',-0.525,0.400
'5:10.139',-0.495,0.385
'5:10.142',-0.470,0.350
'5:10.144',-0.460,0.320
'5:10.147',-0.450,0.270
'5:10.150',-0.420,0.250
'5:10.153',-0.405,0.240
'5:10.156',-0.355,0.240
'5:10.158',-0.350,0.185
'5:10.161',-0.320,0.160
'5:10.164',-0.325,0.125
'5:10.167',-0.315,0.115
'5:10.169',-0.285,0.125
'5:10.172',-0.265,0.115
'5:10.175',-0.225,0.095
'5:10.178',-0.240,0.070
'5:10.181',-0.260,0.045
'5:10.183',-0.255,0.045
'5:10.186',-0.250,0.055
'5:10.189',-0.220,0.055
'5:10.192',-0.220,0.050
'5:10.194',-0.225,0.025
'5:10.197',-0.225,0.015
'5:10.200',-0.230,0.030
'5:10.203',-0.215,0.040
'5:10.206',-0.205,0.035
'5:10.208',-0.220,0.030
'5:10.211',-0.220,0.000
'5:10.214',-0.230,-0.015
'5:10.217',-0.225,0.010
'5:10.219',-0.210,0.010
'5:10.222',-0.195,0.035
'5:10.225',-0.200,0.020
'5:10.228',-0.210,0.015
'5:10.231',-0.225,-0.010
'5:10.233',-0.230,0.000
'5:10.236',-0.220,0.010
'5:10.239',-0.215,0.020
'5:10.242',-0.205,0.020
'5:10.244',-0.225,0.010
'5:10.247',-0.255,-0.010
'5:10.250',-0.260,0.000
'5:10.253',-0.250,0.000
'5:10.256',-0.220,0.025
'5:10.258',-0.225,0.015
'5:10.261',-0.250,-0.005
'5:10.264',-0.245,-0.015
'5:10.267',-0.245,0.010
'5:10.269',-0.240,0.025
'5:10.272',-0.225,0.030
'5:10.275',-0.235,0.030
'5:10.278',-0.250,-0.005
'5:10.281',-0.260,0.000
'5:10.283',-0.260,0.010
'5:10.286',-0.250,0.020
'5:10.289',-0.245,0.040
'5:10.292',-0.230,0.050
'5:10.294',-0.250,0.015
'5:10.297',-0.265,0.010
'5:10.300',-0.270,0.020
'5:10.303',-0.255,0.025
'5:10.306',-0.245,0.050
'5:10.308',-0.230,0.035
'5:10.311',-0.240,0.015
'5:10.314',-0.245,0.005
'5:10.317',-0.260,0.020
'5:10.319',-0.250,0.025
'5:10.322',-0.255,0.055
'5:10.325',-0.250,0.035
'5:10.328',-0.250,0.025
'5:10.331',-0.275,0.005
'5:10.333',-0.265,0.015
'5:10.336',-0.260,0.035
'5:10.339',-0.245,0.035
'5:10.342',-0.245,0.035
'5:10.344',-0.245,0.020
'5:10.347',-0.270,0.025
'5:10.350',-0.260,0.020
'5:10.353',-0.235,0.020
'5:10.356',-0.225,0.035
'5:10.358',-0.225,0.025
'5:10.361',-0.235,0.010
'5:10.364',-0.245,0.000
'5:10.367',-0.255,0.005
'5:10.369',-0.240,0.020
'5:10.372',-0.220,0.020
'5:10.375',-0.215,0.025
'5:10.378',-0.220,0.005
'5:10.381',-0.230,-0.005
'5:10.383',-0.250,0.000
'5:10.386',-0.245,0.005
'5:10.389',-0.230,0.025
'5:10.392',-0.220,0.015
'5:10.394',-0.230,0.005
'5:10.397',-0.245,-0.015
'5:10.400',-0.270,0.000
'5:10.403',-0.240,0.015
'5:10.406',-0.235,0.000
'5:10.408',-0.225,-0.005
'5:10.411',-0.245,-0.015
'5:10.414',-0.250,-0.020
'5:10.417',-0.240,-0.010
'5:10.419',-0.230,0.015
'5:10.422',-0.205,0.020
'5:10.425',-0.210,0.010
'5:10.428',-0.230,-0.005
'5:10.431',-0.250,-0.025
'5:10.433',-0.255,-0.020
'5:10.436',-0.240,-0.005
'5:10.439',-0.225,0.000
'5:10.442',-0.210,-0.015
'5:10.444',-0.220,-0.020
'5:10.447',-0.235,-0.040
'5:10.450',-0.240,-0.015
'5:10.453',-0.230,-0.005
'5:10.456',-0.225,0.000
'5:10.458',-0.220,-0.010
'5:10.461',-0.230,-0.030
'5:10.464',-0.250,-0.045
'5:10.467',-0.250,-0.025
'5:10.469',-0.230,-0.010
'5:10.472',-0.230,0.005
'5:10.475',-0.230,0.005
'5:10.478',-0.235,-0.015
'5:10.481',-0.245,-0.030
'5:10.483',-0.240,-0.010
'5:10.486',-0.225,0.000
'5:10.489',-0.195,0.020
'5:10.492',-0.210,-0.005
'5:10.494',-0.210,0.000
'5:10.497',-0.235,0.000
'5:10.500',-0.235,0.005
'5:10.503',-0.210,0.035
'5:10.506',-0.185,0.050
'5:10.508',-0.180,0.040
'5:10.511',-0.175,0.040
'5:10.514',-0.185,0.035
'5:10.517',-0.180,0.040
'5:10.519',-0.185,0.065
'5:10.522',-0.175,0.080
'5:10.525',-0.155,0.080
'5:10.528',-0.160,0.070
'5:10.531',-0.170,0.045
'5:10.533',-0.170,0.060
'5:10.536',-0.155,0.055
'5:10.539',-0.155,0.040
'5:10.542',-0.160,0.010
'5:10.544',-0.175,-0.005
'5:10.547',-0.200,-0.025
'5:10.550',-0.205,-0.015
'5:10.553',-0.180,-0.015
'5:10.556',-0.180,-0.015
'5:10.558',-0.185,-0.025
'5:10.561',-0.200,-0.045
'5:10.564',-0.220,-0.040
'5:10.567',-0.235,-0.045
'5:10.569',-0.215,-0.020
'5:10.572',-0.215,-0.025
'5:10.575',-0.215,-0.020
'5:10.578',-0.230,-0.050
'5:10.581',-0.250,-0.055
'5:10.583',-0.255,-0.060
'5:10.586',-0.260,-0.040
'5:10.589',-0.235,-0.035
'5:10.592',-0.230,-0.040
'5:10.594',-0.245,-0.050
'5:10.597',-0.270,-0.065
'5:10.600',-0.260,-0.050
'5:10.603',-0.250,-0.040
'5:10.606',-0.230,-0.035
'5:10.608',-0.235,-0.045
'5:10.611',-0.245,-0.060
'5:10.614',-0.245,-0.075
'5:10.617',-0.255,-0.075
'5:10.619',-0.245,-0.050
'5:10.622',-0.240,-0.040
'5:10.625',-0.235,-0.055
'5:10.628',-0.235,-0.075
'5:10.631',-0.260,-0.090
'5:10.633',-0.245,-0.090
'5:10.636',-0.230,-0.070
'5:10.639',-0.210,-0.060
'5:10.642',-0.200,-0.065
'5:10.644',-0.210,-0.070
'5:10.647',-0.230,-0.090
'5:10.650',-0.240,-0.090
'5:10.653',-0.245,-0.055
'5:10.656',-0.205,-0.040
'5:10.658',-0.210,-0.040
'5:10.661',-0.190,-0.050
'5:10.664',-0.195,-0.030
'5:10.667',-0.220,-0.015
'5:10.669',-0.230,-0.015
'5:10.672',-0.215,-0.015
'5:10.675',-0.185,-0.065
'5:10.678',-0.125,-0.125
'5:10.681',-0.045,-0.205
'5:10.683',0.040,-0.295
'5:10.686',0.145,-0.390
'5:10.689',0.225,-0.505
'5:10.692',0.275,-0.640
'5:10.694',0.340,-0.775
'5:10.697',0.420,-0.895
'5:10.700',0.540,-0.975
'5:10.703',0.700,-1.050
'5:10.706',0.865,-1.080
'5:10.708',1.050,-1.150
'5:10.711',1.230,-1.205
'5:10.714',1.390,-1.230
'5:10.717',1.575,-1.230
'5:10.719',1.755,-1.195
'5:10.722',1.880,-1.170
'5:10.725',1.930,-1.165
'5:10.728',1.900,-1.170
'5:10.731',1.825,-1.170
'5:10.733',1.640,-1.150
'5:10.736',1.400,-1.120
'5:10.739',1.120,-1.055
'5:10.742',0.845,-1.005
'5:10.744',0.630,-0.965
'5:10.747',0.500,-0.895
'5:10.750',0.435,-0.815
'5:10.753',0.410,-0.725
'5:10.756',0.405,-0.625
'5:10.758',0.390,-0.555
'5:10.761',0.350,-0.525
'5:10.764',0.295,-0.460
'5:10.767',0.240,-0.405
'5:10.769',0.210,-0.335
'5:10.772',0.185,-0.295
'5:10.775',0.130,-0.255
'5:10.778',0.080,-0.230
'5:10.781',0.050,-0.210
'5:10.783',0.005,-0.145
'5:10.786',-0.010,-0.095
'5:10.789',-0.035,-0.055
'5:10.792',-0.060,-0.020
'5:10.794',-0.110,0.010
'5:10.797',-0.160,0.040
'5:10.800',-0.200,0.080
'5:10.803',-0.230,0.130
'5:10.806',-0.250,0.165
'5:10.808',-0.270,0.180
'5:10.811',-0.305,0.190
'5:10.814',-0.335,0.185
'5:10.817',-0.355,0.205
'5:10.819',-0.365,0.250
'5:10.822',-0.365,0.265
'5:10.825',-0.380,0.280
'5:10.828',-0.390,0.255
'5:10.831',-0.405,0.265
'5:10.833',-0.415,0.275
'5:10.836',-0.400,0.285
'5:10.839',-0.380,0.310
'5:10.842',-0.405,0.320
'5:10.844',-0.405,0.305
'5:10.847',-0.430,0.305
'5:10.850',-0.435,0.315
'5:10.853',-0.435,0.345
'5:10.856',-0.425,0.370
'5:10.858',-0.425,0.370
'5:10.861',-0.435,0.365
'5:10.864',-0.445,0.360
'5:10.867',-0.450,0.380
'5:10.869',-0.450,0.405
'5:10.872',-0.455,0.425
'5:10.875',-0.445,0.440
'5:10.878',-0.460,0.440
'5:10.881',-0.465,0.430
'5:10.883',-0.470,0.460
'5:10.886',-0.470,0.465
'5:10.889',-0.460,0.480
'5:10.892',-0.455,0.500
'5:10.894',-0.485,0.485
'5:10.897',-0.510,0.505
'5:10.900',-0.520,0.525
'5:10.903',-0.495,0.565
'5:10.906',-0.485,0.605
'5:10.908',-0.500,0.600
'5:10.911',-0.520,0.605
'5:10.914',-0.520,0.595
'5:10.917',-0.530,0.615
'5:10.919',-0.540,0.655
'5:10.922',-0.545,0.685
'5:10.925',-0.530,0.700
'5:10.928',-0.540,0.690
'5:10.931',-0.580,0.685
'5:10.933',-0.600,0.710
'5:10.936',-0.605,0.730
'5:10.939',-0.600,0.760
'5:10.942',-0.600,0.755
'5:10.944',-0.615,0.765
'5:10.947',-0.620,0.750
'5:10.950',-0.625,0.780
'5:10.953',-0.625,0.815
'5:10.956',-0.625,0.805
'5:10.958',-0.630,0.800
'5:10.961',-0.650,0.795
'5:10.964',-0.685,0.770
'5:10.967',-0.680,0.785
'5:10.969',-0.685,0.780
'5:10.972',-0.670,0.805
'5:10.975',-0.665,0.780
'5:10.978',-0.670,0.765
'5:10.981',-0.685,0.730
'5:10.983',-0.685,0.725
'5:10.986',-0.675,0.720
'5:10.989',-0.650,0.715
'5:10.992',-0.650,0.700
'5:10.994',-0.645,0.690
'5:10.997',-0.655,0.640
'5:11.000',-0.645,0.620
'5:11.003',-0.640,0.610
'5:11.006',-0.605,0.595
'5:11.008',-0.585,0.560
'5:11.011',-0.570,0.510
'5:11.014',-0.555,0.460
'5:11.017',-0.545,0.460
'5:11.019',-0.510,0.420
'5:11.022',-0.480,0.420
'5:11.025',-0.455,0.375
'5:11.028',-0.430,0.335
'5:11.031',-0.420,0.285
'5:11.033',-0.395,0.245
'5:11.036',-0.350,0.250
'5:11.039',-0.315,0.240
'5:11.042',-0.305,0.230
'5:11.044',-0.285,0.195
'5:11.047',-0.300,0.165
'5:11.050',-0.275,0.155
'5:11.053',-0.245,0.160
'5:11.056',-0.225,0.150
'5:11.058',-0.225,0.110
'5:11.061',-0.205,0.100
'5:11.064',-0.235,0.090
'5:11.067',-0.240,0.085
'5:11.069',-0.235,0.095
'5:11.072',-0.205,0.100
'5:11.075',-0.190,0.090
'5:11.078',-0.200,0.060
'5:11.081',-0.215,0.045
'5:11.083',-0.225,0.065
'5:11.086',-0.225,0.060
'5:11.089',-0.200,0.080
'5:11.092',-0.195,0.060
'5:11.094',-0.195,0.035
'5:11.097',-0.215,0.050
'5:11.100',-0.220,0.040
'5:11.103',-0.225,0.045
'5:11.106',-0.210,0.070
'5:11.108',-0.210,0.045
'5:11.111',-0.210,0.045
'5:11.114',-0.225,0.035
'5:11.117',-0.220,0.040
'5:11.119',-0.205,0.055
'5:11.122',-0.190,0.070
'5:11.125',-0.205,0.060
'5:11.128',-0.220,0.055
'5:11.131',-0.235,0.055
'5:11.133',-0.235,0.045
'5:11.136',-0.225,0.065
'5:11.139',-0.205,0.085
'5:11.142',-0.190,0.080
'5:11.144',-0.210,0.070
'5:11.147',-0.225,0.040
'5:11.150',-0.240,0.065
'5:11.153',-0.240,0.070
'5:11.156',-0.215,0.090
'5:11.158',-0.210,0.075
'5:11.161',-0.220,0.065
'5:11.164',-0.230,0.055
'5:11.167',-0.240,0.080
'5:11.169',-0.240,0.075
'5:11.172',-0.235,0.090
'5:11.175',-0.245,0.070
'5:11.178',-0.240,0.060
'5:11.181',-0.245,0.060
'5:11.183',-0.240,0.055
'5:11.186',-0.240,0.085
'5:11.189',-0.225,0.105
'5:11.192',-0.225,0.100
'5:11.194',-0.230,0.085
'5:11.197',-0.255,0.065
'5:11.200',-0.255,0.070
'5:11.203',-0.240,0.090
'5:11.206',-0.225,0.100
'5:11.208',-0.225,0.110
'5:11.211',-0.240,0.075
'5:11.214',-0.250,0.075
'5:11.217',-0.265,0.085
'5:11.219',-0.245,0.105
'5:11.222',-0.215,0.095
'5:11.225',-0.205,0.085
'5:11.228',-0.220,0.090
'5:11.231',-0.255,0.065
'5:11.233',-0.270,0.060
'5:11.236',-0.255,0.080
'5:11.239',-0.240,0.110
'5:11.242',-0.230,0.090
'5:11.244',-0.235,0.070
'5:11.247',-0.245,0.055
'5:11.250',-0.240,0.060
'5:11.253',-0.230,0.080
'5:11.256',-0.205,0.095
'5:11.258',-0.195,0.085
'5:11.261',-0.220,0.065
'5:11.264',-0.235,0.055
'5:11.267',-0.235,0.070
'5:11.269',-0.235,0.075
'5:11.272',-0.230,0.075
'5:11.275',-0.215,0.065
'5:11.278',-0.225,0.065
'5:11.281',-0.235,0.055
'5:11.283',-0.225,0.065
'5:11.286',-0.225,0.080
'5:11.289',-0.210,0.085
'5:11.292',-0.220,0.075
'5:11.294',-0.230,0.075
'5:11.297',-0.245,0.060
'5:11.300',-0.235,0.060
'5:11.303',-0.220,0.065
'5:11.306',-0.205,0.080
'5:11.308',-0.205,0.070
'5:11.311',-0.210,0.055
'5:11.314',-0.220,0.050
'5:11.317',-0.240,0.045
'5:11.319',-0.245,0.055
'5:11.322',-0.225,0.060
'5:11.325',-0.200,0.055
'5:11.328',-0.210,0.055
'5:11.331',-0.210,0.040
'5:11.333',-0.235,0.065
'5:11.336',-0.225,0.085
'5:11.339',-0.195,0.095
'5:11.342',-0.180,0.085
'5:11.344',-0.185,0.085
'5:11.347',-0.175,0.080
'5:11.350',-0.200,0.095
'5:11.353',-0.200,0.125
'5:11.356',-0.185,0.135
'5:11.358',-0.165,0.140
'5:11.361',-0.165,0.125
'5:11.364',-0.180,0.120
'5:11.367',-0.175,0.125
'5:11.369',-0.175,0.135
'5:11.372',-0.160,0.145
'5:11.375',-0.150,0.135
'5:11.378',-0.170,0.125
'5:11.381',-0.180,0.110
'5:11.383',-0.170,0.105
'5:11.386',-0.175,0.110
'5:11.389',-0.155,0.090
'5:11.392',-0.160,0.075
'5:11.394',-0.180,0.045
'5:11.397',-0.200,0.035
'5:11.400',-0.215,0.040
'5:11.403',-0.205,0.045
'5:11.406',-0.190,0.075
'5:11.408',-0.170,0.030
'5:11.411',-0.175,0.025
'5:11.414',-0.200,0.020
'5:11.417',-0.210,0.030
'5:11.419',-0.200,0.045
'5:11.422',-0.195,0.055
'5:11.425',-0.200,0.040
'5:11.428',-0.225,0.015
'5:11.431',-0.260,-0.005
'5:11.433',-0.250,-0.005
'5:11.436',-0.240,0.010
'5:11.439',-0.210,0.040
'5:11.442',-0.195,0.020
'5:11.444',-0.200,0.030
'5:11.447',-0.225,0.000
'5:11.450',-0.245,0.005
'5:11.453',-0.230,0.010
'5:11.456',-0.225,0.025
'5:11.458',-0.225,0.015
'5:11.461',-0.225,0.000
'5:11.464',-0.250,-0.005
'5:11.467',-0.225,-0.010
'5:11.469',-0.200,0.015
'5:11.472',-0.190,0.000
'5:11.475',-0.195,0.000
'5:11.478',-0.185,-0.010
'5:11.481',-0.205,-0.010
'5:11.483',-0.200,0.005
'5:11.486',-0.180,0.025
'5:11.489',-0.175,0.030
'5:11.492',-0.175,0.030
'5:11.494',-0.190,0.000
'5:11.497',-0.180,0.025
'5:11.500',-0.175,0.045
'5:11.503',-0.165,0.060
'5:11.506',-0.160,0.050
'5:11.508',-0.160,0.000
'5:11.511',-0.120,-0.110
'5:11.514',-0.025,-0.225
'5:11.517',0.105,-0.360
'5:11.519',0.245,-0.465
'5:11.522',0.375,-0.575
'5:11.525',0.500,-0.705
'5:11.528',0.615,-0.825
'5:11.531',0.760,-0.935
'5:11.533',0.955,-1.025
'5:11.536',1.195,-1.040
'5:11.539',1.415,-1.060
'5:11.542',1.635,-1.110
'5:11.544',1.800,-1.120
'5:11.547',1.900,-1.155
'5:11.550',1.920,-1.120
'5:11.553',1.895,-1.085
'5:11.556',1.855,-1.060
'5:11.558',1.700,-1.025
'5:11.561',1.395,-1.010
'5:11.564',1.005,-0.970
'5:11.567',0.685,-0.890
'5:11.569',0.505,-0.770
'5:11.572',0.445,-0.670
'5:11.575',0.445,-0.570
'5:11.578',0.435,-0.505
'5:11.581',0.370,-0.440
'5:11.583',0.285,-0.390
'5:11.586',0.250,-0.320
'5:11.589',0.200,-0.240
'5:11.592',0.160,-0.210
'5:11.594',0.130,-0.170
'5:11.597',0.105,-0.155
'5:11.600',0.075,-0.080
'5:11.603',0.030,-0.040
'5:11.606',0.005,0.010
'5:11.608',-0.045,0.055
'5:11.611',-0.115,0.075
'5:11.614',-0.170,0.120
'5:11.617',-0.220,0.170
'5:11.619',-0.230,0.220
'5:11.622',-0.240,0.265
'5:11.625',-0.280,0.255
'5:11.628',-0.315,0.265
'5:11.631',-0.345,0.260
'5:11.633',-0.360,0.290
'5:11.636',-0.350,0.320
'5:11.639',-0.350,0.330
'5:11.642',-0.350,0.345
'5:11.644',-0.370,0.345
'5:11.647',-0.385,0.340
'5:11.650',-0.385,0.335
'5:11.653',-0.395,0.380
'5:11.656',-0.385,0.390
'5:11.658',-0.370,0.395
'5:11.661',-0.395,0.410
'5:11.664',-0.430,0.405
'5:11.667',-0.450,0.410
'5:11.669',-0.450,0.455
'5:11.672',-0.445,0.470
'5:11.675',-0.415,0.480
'5:11.678',-0.420,0.470
'5:11.681',-0.435,0.460
'5:11.683',-0.455,0.480
'5:11.686',-0.455,0.515
'5:11.689',-0.455,0.540
'5:11.692',-0.455,0.540
'5:11.694',-0.455,0.545
'5:11.697',-0.465,0.540
'5:11.700',-0.480,0.570
'5:11.703',-0.480,0.590
'5:11.706',-0.475,0.630
'5:11.708',-0.480,0.650
'5:11.711',-0.500,0.655
'5:11.714',-0.515,0.655
'5:11.717',-0.525,0.675
'5:11.719',-0.525,0.715
'5:11.722',-0.515,0.740
'5:11.725',-0.535,0.755
'5:11.728',-0.555,0.770
'5:11.731',-0.580,0.765
'5:11.733',-0.590,0.770
'5:11.736',-0.585,0.795
'5:11.739',-0.590,0.825
'5:11.742',-0.590,0.820
'5:11.744',-0.605,0.825
'5:11.747',-0.635,0.830
'5:11.750',-0.650,0.855
'5:11.753',-0.635,0.885
'5:11.756',-0.620,0.895
'5:11.758',-0.630,0.905
'5:11.761',-0.645,0.885
'5:11.764',-0.675,0.870
'5:11.767',-0.685,0.870
'5:11.769',-0.695,0.875
'5:11.772',-0.665,0.885
'5:11.775',-0.670,0.865
'5:11.778',-0.655,0.845
'5:11.781',-0.670,0.825
'5:11.783',-0.695,0.810
'5:11.786',-0.680,0.810
'5:11.789',-0.660,0.810
'5:11.792',-0.655,0.765
'5:11.794',-0.645,0.730
'5:11.797',-0.635,0.700
'5:11.800',-0.625,0.670
'5:11.803',-0.595,0.665
'5:11.806',-0.580,0.640
'5:11.808',-0.570,0.595
'5:11.811',-0.545,0.545
'5:11.814',-0.530,0.510
'5:11.817',-0.510,0.480
'5:11.819',-0.470,0.460
'5:11.822',-0.410,0.440
'5:11.825',-0.385,0.405
'5:11.828',-0.385,0.360
'5:11.831',-0.365,0.330
'5:11.833',-0.345,0.300
'5:11.836',-0.315,0.295
'5:11.839',-0.265,0.295
'5:11.842',-0.255,0.265
'5:11.844',-0.245,0.230
'5:11.847',-0.240,0.200
'5:11.850',-0.225,0.195
'5:11.853',-0.210,0.195
'5:11.856',-0.190,0.200
'5:11.858',-0.180,0.170
'5:11.861',-0.175,0.140
'5:11.864',-0.180,0.110
'5:11.867',-0.185,0.140
'5:11.869',-0.185,0.135
'5:11.872',-0.190,0.145
'5:11.875',-0.160,0.125
'5:11.878',-0.165,0.115
'5:11.881',-0.170,0.095
'5:11.883',-0.180,0.095
'5:11.886',-0.155,0.095
'5:11.889',-0.160,0.115
'5:11.892',-0.150,0.095
'5:11.894',-0.165,0.080
'5:11.897',-0.170,0.075
'5:11.900',-0.165,0.095
'5:11.903',-0.145,0.105
'5:11.906',-0.140,0.105
'5:11.908',-0.135,0.095
'5:11.911',-0.165,0.070
'5:11.914',-0.175,0.070
'5:11.917',-0.185,0.100
'5:11.919',-0.175,0.095
'5:11.922',-0.160,0.110
'5:11.925',-0.155,0.100
'5:11.928',-0.150,0.080
'5:11.931',-0.180,0.060
'5:11.933',-0.190,0.065
'5:11.936',-0.180,0.110
'5:11.939',-0.160,0.110
'5:11.942',-0.155,0.110
'5:11.944',-0.180,0.095
'5:11.947',-0.185,0.065
'5:11.950',-0.195,0.085
'5:11.953',-0.185,0.095
'5:11.956',-0.190,0.120
'5:11.958',-0.170,0.100
'5:11.961',-0.170,0.090
'5:11.964',-0.175,0.095
'5:11.967',-0.180,0.085
'5:11.969',-0.175,0.100
'5:11.972',-0.175,0.120
'5:11.975',-0.170,0.095
'5:11.978',-0.190,0.085
'5:11.981',-0.205,0.085
'5:11.983',-0.205,0.100
'5:11.986',-0.185,0.095
'5:11.989',-0.165,0.125
'5:11.992',-0.175,0.105
'5:11.994',-0.170,0.085
'5:11.997',-0.185,0.070
'5:12.000',-0.180,0.070
'5:12.003',-0.170,0.105
'5:12.006',-0.170,0.115
'5:12.008',-0.175,0.115
'5:12.011',-0.170,0.080
'5:12.014',-0.190,0.065
'5:12.017',-0.185,0.075
'5:12.019',-0.180,0.090
'5:12.022',-0.170,0.105
'5:12.025',-0.160,0.100
'5:12.028',-0.170,0.075
'5:12.031',-0.185,0.070
'5:12.033',-0.195,0.075
'5:12.036',-0.175,0.090
'5:12.039',-0.155,0.090
'5:12.042',-0.130,0.085
'5:12.044',-0.160,0.070
'5:12.047',-0.180,0.065
'5:12.050',-0.180,0.080
'5:12.053',-0.180,0.085
'5:12.056',-0.150,0.100
'5:12.058',-0.140,0.075
'5:12.061',-0.150,0.065
'5:12.064',-0.165,0.035
'5:12.067',-0.160,0.050
'5:12.069',-0.170,0.065
'5:12.072',-0.155,0.060
'5:12.075',-0.150,0.075
'5:12.078',-0.150,0.055
'5:12.081',-0.155,0.030
'5:12.083',-0.185,0.040
'5:12.086',-0.155,0.045
'5:12.089',-0.145,0.060
'5:12.092',-0.130,0.030
'5:12.094',-0.160,0.045
'5:12.097',-0.160,0.035
'5:12.100',-0.155,0.035
'5:12.103',-0.155,0.055
'5:12.106',-0.135,0.070
'5:12.108',-0.140,0.035
'5:12.111',-0.140,0.030
'5:12.114',-0.155,0.025
'5:12.117',-0.150,0.040
'5:12.119',-0.150,0.070
'5:12.122',-0.145,0.080
'5:12.125',-0.135,0.070
'5:12.128',-0.155,0.060
'5:12.131',-0.150,0.055
'5:12.133',-0.160,0.085
'5:12.136',-0.145,0.115
'5:12.139',-0.125,0.140
'5:12.142',-0.120,0.135
'5:12.144',-0.120,0.135
'5:12.147',-0.130,0.120
'5:12.150',-0.115,0.130
'5:12.153',-0.095,0.135
'5:12.156',-0.075,0.150
'5:12.158',-0.090,0.125
'5:12.161',-0.125,0.095
'5:12.164',-0.140,0.090
'5:12.167',-0.130,0.075
'5:12.169',-0.125,0.075
'5:12.172',-0.105,0.065
'5:12.175',-0.115,0.050
'5:12.178',-0.135,0.025
'5:12.181',-0.145,0.010
'5:12.183',-0.165,0.015
'5:12.186',-0.150,0.030
'5:12.189',-0.125,0.035
'5:12.192',-0.135,0.025
'5:12.194',-0.155,0.005
'5:12.197',-0.175,0.005
'5:12.200',-0.200,0.000
'5:12.203',-0.190,0.015
'5:12.206',-0.160,0.025
'5:12.208',-0.155,0.030
'5:12.211',-0.165,0.010
'5:12.214',-0.180,-0.005
'5:12.217',-0.175,-0.005
'5:12.219',-0.190,0.015
'5:12.222',-0.175,0.015
'5:12.225',-0.150,0.005
'5:12.228',-0.170,-0.025
'5:12.231',-0.180,-0.035
'5:12.233',-0.195,-0.035
'5:12.236',-0.175,-0.025
'5:12.239',-0.135,-0.005
'5:12.242',-0.130,-0.005
'5:12.244',-0.140,-0.020
'5:12.247',-0.155,-0.045
'5:12.250',-0.150,-0.055
'5:12.253',-0.135,-0.030
'5:12.256',-0.115,-0.020
'5:12.258',-0.105,-0.015
'5:12.261',-0.105,-0.030
'5:12.264',-0.110,-0.020
'5:12.267',-0.120,0.010
'5:12.269',-0.130,0.015
'5:12.272',-0.120,0.005
'5:12.275',-0.085,-0.065
'5:12.278',-0.010,-0.175
'5:12.281',0.100,-0.315
'5:12.283',0.225,-0.440
'5:12.286',0.355,-0.555
'5:12.289',0.470,-0.660
'5:12.292',0.580,-0.770
'5:12.294',0.695,-0.875
'5:12.297',0.820,-0.975
'5:12.300',0.995,-1.040
'5:12.303',1.170,-1.090
'5:12.306',1.355,-1.100
'5:12.308',1.545,-1.135
'5:12.311',1.735,-1.160
'5:12.314',1.865,-1.165
'5:12.317',1.940,-1.155
'5:12.319',1.920,-1.130
'5:12.322',1.795,-1.100
'5:12.325',1.525,-1.080
'5:12.328',1.145,-1.065
'5:12.331',0.800,-1.020
'5:12.333',0.585,-0.965
'5:12.336',0.490,-0.905
'5:12.339',0.480,-0.815
'5:12.342',0.475,-0.725
'5:12.344',0.455,-0.630
'5:12.347',0.410,-0.560
'5:12.350',0.355,-0.480
'5:12.353',0.320,-0.390
'5:12.356',0.265,-0.320
'5:12.358',0.195,-0.255
'5:12.361',0.145,-0.200
'5:12.364',0.085,-0.140
'5:12.367',0.040,-0.090
'5:12.369',0.005,-0.015
'5:12.372',-0.030,0.025
'5:12.375',-0.080,0.050
'5:12.378',-0.135,0.090
'5:12.381',-0.200,0.115
'5:12.383',-0.220,0.155
'5:12.386',-0.235,0.195
'5:12.389',-0.225,0.235
'5:12.392',-0.265,0.225
'5:12.394',-0.295,0.230
'5:12.397',-0.315,0.230
'5:12.400',-0.330,0.260
'5:12.403',-0.325,0.300
'5:12.406',-0.305,0.310
'5:12.408',-0.315,0.315
'5:12.411',-0.330,0.310
'5:12.414',-0.355,0.310
'5:12.417',-0.375,0.325
'5:12.419',-0.365,0.345
'5:12.422',-0.345,0.380
'5:12.425',-0.330,0.390
'5:12.428',-0.365,0.385
'5:12.431',-0.385,0.375
'5:12.433',-0.400,0.390
'5:12.436',-0.400,0.420
'5:12.439',-0.375,0.455
'5:12.442',-0.380,0.455
'5:12.444',-0.385,0.455
'5:12.447',-0.410,0.475
'5:12.450',-0.410,0.485
'5:12.453',-0.405,0.510
'5:12.456',-0.410,0.550
'5:12.458',-0.400,0.555
'5:12.461',-0.420,0.555
'5:12.464',-0.435,0.585
'5:12.467',-0.475,0.600
'5:12.469',-0.470,0.645
'5:12.472',-0.460,0.665
'5:12.475',-0.450,0.660
'5:12.478',-0.460,0.675
'5:12.481',-0.480,0.665
'5:12.483',-0.490,0.700
'5:12.486',-0.490,0.740
'5:12.489',-0.490,0.775
'5:12.492',-0.500,0.765
'5:12.494',-0.520,0.770
'5:12.497',-0.535,0.780
'5:12.500',-0.540,0.790
'5:12.503',-0.530,0.820
'5:12.506',-0.540,0.840
'5:12.508',-0.545,0.825
'5:12.511',-0.570,0.835
'5:12.514',-0.600,0.810
'5:12.517',-0.610,0.820
'5:12.519',-0.590,0.830
'5:12.522',-0.595,0.825
'5:12.525',-0.600,0.815
'5:12.528',-0.600,0.785
'5:12.531',-0.625,0.745
'5:12.533',-0.605,0.755
'5:12.536',-0.590,0.745
'5:12.539',-0.565,0.725
'5:12.542',-0.555,0.690
'5:12.544',-0.565,0.650
'5:12.547',-0.575,0.595
'5:12.550',-0.555,0.585
'5:12.553',-0.520,0.575
'5:12.556',-0.485,0.550
'5:12.558',-0.455,0.520
'5:12.561',-0.435,0.455
'5:12.564',-0.435,0.415
'5:12.567',-0.410,0.400
'5:12.569',-0.390,0.365
'5:12.572',-0.335,0.340
'5:12.575',-0.300,0.290
'5:12.578',-0.295,0.250
'5:12.581',-0.275,0.215
'5:12.583',-0.260,0.195
'5:12.586',-0.250,0.190
'5:12.589',-0.215,0.185
'5:12.592',-0.175,0.165
'5:12.594',-0.165,0.110
'5:12.597',-0.165,0.110
'5:12.600',-0.160,0.100
'5:12.603',-0.155,0.090
'5:12.606',-0.140,0.085
'5:12.608',-0.130,0.095
'5:12.611',-0.125,0.070
'5:12.614',-0.120,0.045
'5:12.617',-0.120,0.055
'5:12.619',-0.125,0.060
'5:12.622',-0.105,0.070
'5:12.625',-0.115,0.065
'5:12.628',-0.145,0.050
'5:12.631',-0.145,0.035
'5:12.633',-0.135,0.025
'5:12.636',-0.115,0.050
'5:12.639',-0.100,0.060
'5:12.642',-0.110,0.055
'5:12.644',-0.110,0.055
'5:12.647',-0.145,0.030
'5:12.650',-0.145,0.040
'5:12.653',-0.125,0.065
'5:12.656',-0.100,0.075
'5:12.658',-0.080,0.095
'5:12.661',-0.075,0.095
'5:12.664',-0.060,0.120
'5:12.667',-0.040,0.145
'5:12.669',0.020,0.205
'5:12.672',0.120,0.240
'5:12.675',0.205,0.290
'5:12.678',0.320,0.320
'5:12.681',0.425,0.335
'5:12.683',0.535,0.395
'5:12.686',0.660,0.485
'5:12.689',0.770,0.540
'5:12.692',0.900,0.595
'5:12.694',0.985,0.615
'5:12.697',1.080,0.650
'5:12.700',1.140,0.705
'5:12.703',1.195,0.770
'5:12.706',1.220,0.825
'5:12.708',1.250,0.860
'5:12.711',1.250,0.885
'5:12.714',1.215,0.935
'5:12.717',1.125,0.985
'5:12.719',0.950,1.020
'5:12.722',0.690,1.080
'5:12.725',0.385,1.095
'5:12.728',0.045,1.090
'5:12.731',-0.260,1.090
'5:12.733',-0.550,1.070
'5:12.736',-0.795,1.045
'5:12.739',-0.990,1.035
'5:12.742',-1.140,1.010
'5:12.744',-1.275,0.985
'5:12.747',-1.360,0.940
'5:12.750',-1.460,0.900
'5:12.753',-1.520,0.870
'5:12.756',-1.575,0.840
'5:12.758',-1.615,0.815
'5:12.761',-1.680,0.785
'5:12.764',-1.740,0.770
'5:12.767',-1.795,0.775
'5:12.769',-1.830,0.785
'5:12.772',-1.845,0.795
'5:12.775',-1.865,0.760
'5:12.778',-1.900,0.720
'5:12.781',-1.910,0.675
'5:12.783',-1.895,0.640
'5:12.786',-1.860,0.625
'5:12.789',-1.745,0.630
'5:12.792',-1.605,0.600
'5:12.794',-1.465,0.585
'5:12.797',-1.345,0.550
'5:12.800',-1.265,0.555
'5:12.803',-1.170,0.555
'5:12.806',-1.085,0.570
'5:12.808',-1.010,0.560
'5:12.811',-0.940,0.535
'5:12.814',-0.880,0.525
'5:12.817',-0.850,0.500
'5:12.819',-0.805,0.480
'5:12.822',-0.740,0.435
'5:12.825',-0.690,0.340
'5:12.828',-0.650,0.260
'5:12.831',-0.610,0.195
'5:12.833',-0.555,0.145
'5:12.836',-0.490,0.095
'5:12.839',-0.405,0.050
'5:12.842',-0.340,0.010
'5:12.844',-0.305,-0.060
'5:12.847',-0.270,-0.095
'5:12.850',-0.215,-0.135
'5:12.853',-0.170,-0.150
'5:12.856',-0.140,-0.180
'5:12.858',-0.110,-0.220
'5:12.861',-0.095,-0.275
'5:12.864',-0.060,-0.315
'5:12.867',-0.010,-0.355
'5:12.869',0.045,-0.355
'5:12.872',0.070,-0.375
'5:12.875',0.100,-0.410
'5:12.878',0.115,-0.435
'5:12.881',0.110,-0.460
'5:12.883',0.135,-0.480
'5:12.886',0.170,-0.480
'5:12.889',0.220,-0.500
'5:12.892',0.240,-0.530
'5:12.894',0.270,-0.565
'5:12.897',0.290,-0.595
'5:12.900',0.315,-0.620
'5:12.903',0.350,-0.605
'5:12.906',0.410,-0.610
'5:12.908',0.420,-0.620
'5:12.911',0.435,-0.650
'5:12.914',0.435,-0.670
'5:12.917',0.450,-0.690
'5:12.919',0.490,-0.705
'5:12.922',0.540,-0.705
'5:12.925',0.580,-0.725
'5:12.928',0.605,-0.760
'5:12.931',0.620,-0.770
'5:12.933',0.635,-0.785
'5:12.936',0.665,-0.785
'5:12.939',0.715,-0.795
'5:12.942',0.740,-0.800
'5:12.944',0.775,-0.830
'5:12.947',0.795,-0.850
'5:12.950',0.815,-0.845
'5:12.953',0.840,-0.850
'5:12.956',0.875,-0.830
'5:12.958',0.885,-0.835
'5:12.961',0.895,-0.850
'5:12.964',0.910,-0.870
'5:12.967',0.925,-0.860
'5:12.969',0.965,-0.845
'5:12.972',0.990,-0.825
'5:12.975',1.035,-0.825
'5:12.978',1.035,-0.835
'5:12.981',1.035,-0.840
'5:12.983',1.050,-0.825
'5:12.986',1.080,-0.800
'5:12.989',1.095,-0.770
'5:12.992',1.120,-0.770
'5:12.994',1.120,-0.765
'5:12.997',1.110,-0.775
'5:13.000',1.115,-0.760
'5:13.003',1.115,-0.725
'5:13.006',1.130,-0.695
'5:13.008',1.150,-0.675
'5:13.011',1.135,-0.680
'5:13.014',1.100,-0.655
'5:13.017',1.075,-0.635
'5:13.019',1.070,-0.590
'5:13.022',1.050,-0.555
'5:13.025',1.015,-0.550
'5:13.028',0.985,-0.515
'5:13.031',0.940,-0.525
'5:13.033',0.925,-0.475
'5:13.036',0.905,-0.440
'5:13.039',0.890,-0.410
'5:13.042',0.865,-0.395
'5:13.044',0.825,-0.385
'5:13.047',0.790,-0.375
'5:13.050',0.750,-0.340
'5:13.053',0.730,-0.310
'5:13.056',0.700,-0.270
'5:13.058',0.670,-0.255
'5:13.061',0.630,-0.265
'5:13.064',0.585,-0.250
'5:13.067',0.550,-0.225
'5:13.069',0.535,-0.190
'5:13.072',0.520,-0.155
'5:13.075',0.500,-0.135
'5:13.078',0.465,-0.145
'5:13.081',0.430,-0.130
'5:13.083',0.385,-0.105
'5:13.086',0.345,-0.090
'5:13.089',0.310,-0.060
'5:13.092',0.280,-0.050
'5:13.094',0.235,-0.045
'5:13.097',0.200,-0.055
'5:13.100',0.165,-0.030
'5:13.103',0.155,-0.005
'5:13.106',0.145,0.005
'5:13.108',0.125,-0.005
'5:13.111',0.095,-0.015
'5:13.114',0.070,-0.020
'5:13.117',0.035,-0.015
'5:13.119',0.035,-0.005
'5:13.122',0.035,0.020
'5:13.125',0.030,0.010
'5:13.128',-0.005,0.005
'5:13.131',-0.035,-0.010
'5:13.133',-0.075,-0.005
'5:13.136',-0.060,0.025
'5:13.139',-0.065,0.040
'5:13.142',-0.060,0.015
'5:13.144',-0.070,0.005
'5:13.147',-0.085,-0.005
'5:13.150',-0.105,0.005
'5:13.153',-0.115,0.040
'5:13.156',-0.110,0.050
'5:13.158',-0.105,0.020
'5:13.161',-0.120,0.010
'5:13.164',-0.140,0.010
'5:13.167',-0.140,0.000
'5:13.169',-0.145,0.025
'5:13.172',-0.135,0.030
'5:13.175',-0.125,0.035
'5:13.178',-0.150,0.025
'5:13.181',-0.165,0.015
'5:13.183',-0.175,0.030
'5:13.186',-0.165,0.045
'5:13.189',-0.145,0.035
'5:13.192',-0.140,0.020
'5:13.194',-0.150,0.015
'5:13.197',-0.190,0.010
'5:13.200',-0.210,0.025
'5:13.203',-0.205,0.040
'5:13.206',-0.180,0.050
'5:13.208',-0.175,0.040
'5:13.211',-0.180,0.025
'5:13.214',-0.195,0.015
'5:13.217',-0.205,0.020
'5:13.219',-0.190,0.040
'5:13.222',-0.205,0.045
'5:13.225',-0.210,0.055
'5:13.228',-0.215,0.035
'5:13.231',-0.220,0.020
'5:13.233',-0.220,0.005
'5:13.236',-0.215,0.030
'5:13.239',-0.190,0.045
'5:13.242',-0.180,0.030
'5:13.244',-0.190,0.020
'5:13.247',-0.220,0.005
'5:13.250',-0.230,0.010
'5:13.253',-0.240,0.030
'5:13.256',-0.225,0.045
'5:13.258',-0.215,0.045
'5:13.261',-0.220,0.045
'5:13.264',-0.240,0.010
'5:13.267',-0.245,0.020
'5:13.269',-0.240,0.040
'5:13.272',-0.245,0.040
'5:13.275',-0.235,0.035
'5:13.278',-0.235,0.010
'5:13.281',-0.245,0.005
'5:13.283',-0.235,0.015
'5:13.286',-0.225,0.025
'5:13.289',-0.220,0.040
'5:13.292',-0.235,0.030
'5:13.294',-0.250,0.015
'5:13.297',-0.280,0.005
'5:13.300',-0.265,-0.005
'5:13.303',-0.255,0.025
'5:13.306',-0.230,0.050
'5:13.308',-0.230,0.040
'5:13.311',-0.235,0.025
'5:13.314',-0.280,0.000
'5:13.317',-0.265,0.025
'5:13.319',-0.260,0.025
'5:13.322',-0.245,0.025
'5:13.325',-0.240,0.025
'5:13.328',-0.245,0.020
'5:13.331',-0.265,0.005
'5:13.333',-0.295,0.015
'5:13.336',-0.270,0.040
'5:13.339',-0.260,0.055
'5:13.342',-0.265,0.045
'5:13.344',-0.265,0.020
'5:13.347',-0.280,0.000
'5:13.350',-0.270,0.010
'5:13.353',-0.275,0.025
'5:13.356',-0.260,0.050
'5:13.358',-0.255,0.035
'5:13.361',-0.275,0.025
'5:13.364',-0.295,0.000
'5:13.367',-0.285,0.025
'5:13.369',-0.285,0.040
'5:13.372',-0.265,0.045
'5:13.375',-0.255,0.035
'5:13.378',-0.260,0.020
'5:13.381',-0.290,0.010
'5:13.383',-0.300,0.005
'5:13.386',-0.300,0.025
'5:13.389',-0.270,0.045
'5:13.392',-0.260,0.040
'5:13.394',-0.260,0.020
'5:13.397',-0.285,0.010
'5:13.400',-0.325,0.015
'5:13.403',-0.305,0.030
'5:13.406',-0.285,0.035
'5:13.408',-0.260,0.050
'5:13.411',-0.260,0.015
'5:13.414',-0.285,0.005
'5:13.417',-0.295,0.020
'5:13.419',-0.300,0.025
'5:13.422',-0.280,0.035
'5:13.425',-0.275,0.030
'5:13.428',-0.275,0.020
'5:13.431',-0.290,0.015
'5:13.433',-0.300,0.015
'5:13.436',-0.300,0.035
'5:13.439',-0.285,0.045
'5:13.442',-0.280,0.020
'5:13.444',-0.275,0.015
'5:13.447',-0.275,0.010
'5:13.450',-0.300,0.010
'5:13.453',-0.295,0.040
'5:13.456',-0.280,0.045
'5:13.458',-0.270,0.035
'5:13.461',-0.265,0.020
'5:13.464',-0.290,0.010
'5:13.467',-0.285,0.010
'5:13.469',-0.280,0.040
'5:13.472',-0.280,0.055
'5:13.475',-0.260,0.045
'5:13.478',-0.270,0.025
'5:13.481',-0.295,0.030
'5:13.483',-0.300,0.035
'5:13.486',-0.300,0.035
'5:13.489',-0.305,0.050
'5:13.492',-0.280,0.040
'5:13.494',-0.280,0.035
'5:13.497',-0.275,0.015
'5:13.500',-0.265,0.015
'5:13.503',-0.265,0.050
'5:13.506',-0.250,0.055
'5:13.508',-0.255,0.045
'5:13.511',-0.275,0.030
'5:13.514',-0.280,0.010
'5:13.517',-0.270,0.000
'5:13.519',-0.270,0.030
'5:13.522',-0.250,0.050
'5:13.525',-0.255,0.050
'5:13.528',-0.285,0.045
'5:13.531',-0.295,0.015
'5:13.533',-0.305,0.015
'5:13.536',-0.285,0.030
'5:13.539',-0.285,0.045
'5:13.542',-0.270,0.045
'5:13.544',-0.265,0.040
'5:13.547',-0.280,0.050
'5:13.550',-0.285,0.060
'5:13.553',-0.270,0.080
'5:13.556',-0.260,0.075
'5:13.558',-0.265,0.065
'5:13.561',-0.270,0.045
'5:13.564',-0.295,0.015
'5:13.567',-0.285,0.025
'5:13.569',-0.290,0.045
'5:13.572',-0.270,0.055
'5:13.575',-0.250,0.050
'5:13.578',-0.250,0.050
'5:13.581',-0.270,0.030
'5:13.583',-0.275,0.040
'5:13.586',-0.270,0.035
'5:13.589',-0.260,0.045
'5:13.592',-0.265,0.055
'5:13.594',-0.270,0.030
'5:13.597',-0.285,0.035
'5:13.600',-0.285,0.040
'5:13.603',-0.275,0.040
'5:13.606',-0.270,0.045
'5:13.608',-0.270,0.055
'5:13.611',-0.260,0.035
'5:13.614',-0.285,0.035
'5:13.617',-0.295,0.025
'5:13.619',-0.285,0.050
'5:13.622',-0.255,0.060
'5:13.625',-0.260,0.055
'5:13.628',-0.260,0.045
'5:13.631',-0.260,0.025
'5:13.633',-0.265,0.040
'5:13.636',-0.270,0.040
'5:13.639',-0.260,0.030
'5:13.642',-0.230,0.050
'5:13.644',-0.245,0.030
'5:13.647',-0.265,0.005
'5:13.650',-0.285,0.025
'5:13.653',-0.275,0.035
'5:13.656',-0.270,0.065
'5:13.658',-0.255,0.050
'5:13.661',-0.265,0.030
'5:13.664',-0.290,0.010
'5:13.667',-0.280,0.030
'5:13.669',-0.280,0.040
'5:13.672',-0.250,0.065
'5:13.675',-0.245,0.050
'5:13.678',-0.250,0.055
'5:13.681',-0.250,0.025
'5:13.683',-0.260,0.040
'5:13.686',-0.260,0.050
'5:13.689',-0.235,0.065
'5:13.692',-0.230,0.055
'5:13.694',-0.250,0.040
'5:13.697',-0.265,0.030
'5:13.700',-0.280,0.045
'5:13.703',-0.255,0.055
'5:13.706',-0.240,0.070
'5:13.708',-0.255,0.060
'5:13.711',-0.270,0.025
'5:13.714',-0.280,0.025
'5:13.717',-0.280,0.040
'5:13.719',-0.255,0.055
'5:13.722',-0.250,0.060
'5:13.725',-0.245,0.055
'5:13.728',-0.260,0.050
'5:13.731',-0.265,0.035
'5:13.733',-0.260,0.045
'5:13.736',-0.250,0.055
'5:13.739',-0.210,0.065
'5:13.742',-0.230,0.050
'5:13.744',-0.245,0.050
'5:13.747',-0.260,0.045
'5:13.750',-0.260,0.055
'5:13.753',-0.250,0.075
'5:13.756',-0.225,0.080
'5:13.758',-0.215,0.035
'5:13.761',-0.235,0.030
'5:13.764',-0.250,0.020
'5:13.767',-0.250,0.030
'5:13.769',-0.260,0.050
