'Elapsed time','MLII','V1'
'hh:mm:ss.mmm','mV','mV'
'20:00.000',-0.315,0.185
'20:00.003',-0.315,0.185
'20:00.006',-0.315,0.230
'20:00.008',-0.310,0.230
'20:00.011',-0.295,0.210
'20:00.014',-0.305,0.185
'20:00.017',-0.305,0.185
'20:00.019',-0.325,0.190
'20:00.022',-0.345,0.215
'20:00.025',-0.345,0.235
'20:00.028',-0.305,0.235
'20:00.031',-0.295,0.230
'20:00.033',-0.300,0.220
'20:00.036',-0.295,0.230
'20:00.039',-0.270,0.235
'20:00.042',-0.245,0.245
'20:00.044',-0.235,0.230
'20:00.047',-0.240,0.210
'20:00.050',-0.240,0.210
'20:00.053',-0.240,0.235
'20:00.056',-0.230,0.255
'20:00.058',-0.200,0.280
'20:00.061',-0.190,0.235
'20:00.064',-0.200,0.225
'20:00.067',-0.225,0.190
'20:00.069',-0.235,0.175
'20:00.072',-0.250,0.195
'20:00.075',-0.245,0.210
'20:00.078',-0.255,0.195
'20:00.081',-0.265,0.200
'20:00.083',-0.295,0.175
'20:00.086',-0.305,0.160
'20:00.089',-0.335,0.165
'20:00.092',-0.335,0.170
'20:00.094',-0.345,0.180
'20:00.097',-0.335,0.155
'20:00.100',-0.330,0.160
'20:00.103',-0.330,0.165
'20:00.106',-0.345,0.190
'20:00.108',-0.360,0.210
'20:00.111',-0.350,0.210
'20:00.114',-0.350,0.205
'20:00.117',-0.335,0.195
'20:00.119',-0.345,0.195
'20:00.122',-0.350,0.200
'20:00.125',-0.345,0.210
'20:00.128',-0.350,0.210
'20:00.131',-0.365,0.205
'20:00.133',-0.370,0.185
'20:00.136',-0.350,0.195
'20:00.139',-0.335,0.205
'20:00.142',-0.325,0.205
'20:00.144',-0.330,0.185
'20:00.147',-0.345,0.180
'20:00.150',-0.345,0.175
'20:00.153',-0.325,0.200
'20:00.156',-0.300,0.220
'20:00.158',-0.300,0.225
'20:00.161',-0.305,0.205
'20:00.164',-0.350,0.205
'20:00.167',-0.355,0.195
'20:00.169',-0.360,0.190
'20:00.172',-0.330,0.195
'20:00.175',-0.300,0.200
'20:00.178',-0.280,0.190
'20:00.181',-0.300,0.175
'20:00.183',-0.335,0.175
'20:00.186',-0.355,0.165
'20:00.189',-0.345,0.180
'20:00.192',-0.330,0.225
'20:00.194',-0.330,0.215
'20:00.197',-0.315,0.205
'20:00.200',-0.310,0.195
'20:00.203',-0.295,0.195
'20:00.206',-0.280,0.190
'20:00.208',-0.295,0.185
'20:00.211',-0.315,0.200
'20:00.214',-0.340,0.195
'20:00.217',-0.360,0.220
'20:00.219',-0.355,0.235
'20:00.222',-0.280,0.265
'20:00.225',-0.165,0.275
'20:00.228',-0.010,0.230
'20:00.231',0.150,0.180
'20:00.233',0.290,0.120
'20:00.236',0.450,0.065
'20:00.239',0.635,0.005
'20:00.242',0.805,-0.035
'20:00.244',0.855,-0.110
'20:00.247',0.805,-0.185
'20:00.250',0.610,-0.245
'20:00.253',0.410,-0.260
'20:00.256',0.200,-0.235
'20:00.258',-0.060,-0.200
'20:00.261',-0.405,-0.180
'20:00.264',-0.715,-0.150
'20:00.267',-0.930,-0.100
'20:00.269',-0.995,-0.025
'20:00.272',-0.915,0.065
'20:00.275',-0.785,0.150
'20:00.278',-0.655,0.175
'20:00.281',-0.565,0.175
'20:00.283',-0.495,0.170
'20:00.286',-0.440,0.180
'20:00.289',-0.390,0.190
'20:00.292',-0.335,0.205
'20:00.294',-0.280,0.180
'20:00.297',-0.280,0.180
'20:00.300',-0.285,0.175
'20:00.303',-0.310,0.180
'20:00.306',-0.310,0.210
'20:00.308',-0.310,0.230
'20:00.311',-0.280,0.230
'20:00.314',-0.270,0.195
'20:00.317',-0.265,0.165
'20:00.319',-0.280,0.185
'20:00.322',-0.290,0.190
'20:00.325',-0.270,0.210
'20:00.328',-0.245,0.195
'20:00.331',-0.245,0.180
'20:00.333',-0.250,0.180
'20:00.336',-0.265,0.190
'20:00.339',-0.250,0.210
'20:00.342',-0.200,0.230
'20:00.344',-0.180,0.205
'20:00.347',-0.205,0.195
'20:00.350',-0.215,0.175
'20:00.353',-0.210,0.175
'20:00.356',-0.190,0.180
'20:00.358',-0.155,0.180
'20:00.361',-0.110,0.190
'20:00.364',-0.100,0.165
'20:00.367',-0.090,0.140
'20:00.369',-0.090,0.160
'20:00.372',-0.075,0.160
'20:00.375',-0.050,0.155
'20:00.378',-0.025,0.155
'20:00.381',-0.010,0.130
'20:00.383',0.000,0.130
'20:00.386',0.015,0.110
'20:00.389',0.040,0.115
'20:00.392',0.065,0.130
'20:00.394',0.075,0.130
'20:00.397',0.080,0.110
'20:00.400',0.095,0.110
'20:00.403',0.110,0.085
'20:00.406',0.110,0.110
'20:00.408',0.155,0.120
'20:00.411',0.185,0.130
'20:00.414',0.185,0.115
'20:00.417',0.170,0.105
'20:00.419',0.145,0.090
'20:00.422',0.160,0.115
'20:00.425',0.150,0.125
'20:00.428',0.150,0.130
'20:00.431',0.135,0.115
'20:00.433',0.125,0.100
'20:00.436',0.125,0.105
'20:00.439',0.120,0.130
'20:00.442',0.110,0.145
'20:00.444',0.115,0.150
'20:00.447',0.090,0.130
'20:00.450',0.035,0.125
'20:00.453',-0.010,0.110
'20:00.456',-0.040,0.145
'20:00.458',-0.050,0.175
'20:00.461',-0.070,0.175
'20:00.464',-0.100,0.170
'20:00.467',-0.135,0.160
'20:00.469',-0.145,0.165
'20:00.472',-0.165,0.180
'20:00.475',-0.190,0.185
'20:00.478',-0.215,0.185
'20:00.481',-0.255,0.170
'20:00.483',-0.270,0.165
'20:00.486',-0.270,0.175
'20:00.489',-0.260,0.175
'20:00.492',-0.250,0.190
'20:00.494',-0.265,0.180
'20:00.497',-0.280,0.155
'20:00.500',-0.325,0.155
'20:00.503',-0.335,0.170
'20:00.506',-0.330,0.200
'20:00.508',-0.320,0.220
'20:00.511',-0.310,0.200
'20:00.514',-0.300,0.180
'20:00.517',-0.300,0.165
'20:00.519',-0.290,0.155
'20:00.522',-0.275,0.180
'20:00.525',-0.280,0.200
'20:00.528',-0.290,0.185
'20:00.531',-0.305,0.175
'20:00.533',-0.320,0.175
'20:00.536',-0.310,0.165
'20:00.539',-0.300,0.175
'20:00.542',-0.305,0.185
'20:00.544',-0.305,0.180
'20:00.547',-0.330,0.160
'20:00.550',-0.345,0.165
'20:00.553',-0.345,0.180
'20:00.556',-0.320,0.195
'20:00.558',-0.280,0.220
'20:00.561',-0.260,0.200
'20:00.564',-0.260,0.185
'20:00.567',-0.285,0.185
'20:00.569',-0.300,0.190
'20:00.572',-0.290,0.215
'20:00.575',-0.250,0.225
'20:00.578',-0.230,0.205
'20:00.581',-0.235,0.180
'20:00.583',-0.245,0.175
'20:00.586',-0.240,0.180
'20:00.589',-0.215,0.215
'20:00.592',-0.175,0.210
'20:00.594',-0.180,0.200
'20:00.597',-0.195,0.170
'20:00.600',-0.240,0.145
'20:00.603',-0.270,0.130
'20:00.606',-0.280,0.150
'20:00.608',-0.275,0.165
'20:00.611',-0.285,0.165
'20:00.614',-0.300,0.165
'20:00.617',-0.320,0.130
'20:00.619',-0.335,0.140
'20:00.622',-0.335,0.160
'20:00.625',-0.315,0.170
'20:00.628',-0.305,0.175
'20:00.631',-0.315,0.160
'20:00.633',-0.335,0.175
'20:00.636',-0.365,0.155
'20:00.639',-0.360,0.180
'20:00.642',-0.345,0.175
'20:00.644',-0.330,0.170
'20:00.647',-0.340,0.155
'20:00.650',-0.350,0.140
'20:00.653',-0.340,0.130
'20:00.656',-0.345,0.150
'20:00.658',-0.335,0.170
'20:00.661',-0.325,0.160
'20:00.664',-0.345,0.145
'20:00.667',-0.375,0.150
'20:00.669',-0.375,0.155
'20:00.672',-0.360,0.170
'20:00.675',-0.340,0.185
'20:00.678',-0.330,0.180
'20:00.681',-0.325,0.165
'20:00.683',-0.325,0.155
'20:00.686',-0.335,0.135
'20:00.689',-0.330,0.135
'20:00.692',-0.335,0.165
'20:00.694',-0.315,0.150
'20:00.697',-0.325,0.135
'20:00.700',-0.335,0.130
'20:00.703',-0.365,0.150
'20:00.706',-0.360,0.175
'20:00.708',-0.340,0.195
'20:00.711',-0.325,0.170
'20:00.714',-0.310,0.140
'20:00.717',-0.310,0.120
'20:00.719',-0.315,0.115
'20:00.722',-0.310,0.140
'20:00.725',-0.315,0.155
'20:00.728',-0.325,0.145
'20:00.731',-0.325,0.145
'20:00.733',-0.325,0.145
'20:00.736',-0.320,0.175
'20:00.739',-0.305,0.200
'20:00.742',-0.275,0.215
'20:00.744',-0.205,0.195
'20:00.747',-0.100,0.175
'20:00.750',0.035,0.140
'20:00.753',0.200,0.100
'20:00.756',0.365,0.070
'20:00.758',0.560,0.035
'20:00.761',0.760,-0.050
'20:00.764',0.870,-0.150
'20:00.767',0.850,-0.235
'20:00.769',0.705,-0.295
'20:00.772',0.480,-0.300
'20:00.775',0.320,-0.290
'20:00.778',0.170,-0.290
'20:00.781',-0.070,-0.285
'20:00.783',-0.395,-0.255
'20:00.786',-0.680,-0.205
'20:00.789',-0.875,-0.125
'20:00.792',-0.975,-0.065
'20:00.794',-0.950,-0.020
'20:00.797',-0.840,0.050
'20:00.800',-0.755,0.090
'20:00.803',-0.675,0.140
'20:00.806',-0.580,0.145
'20:00.808',-0.485,0.155
'20:00.811',-0.410,0.140
'20:00.814',-0.365,0.120
'20:00.817',-0.355,0.120
'20:00.819',-0.355,0.150
'20:00.822',-0.335,0.175
'20:00.825',-0.330,0.185
'20:00.828',-0.315,0.165
'20:00.831',-0.300,0.145
'20:00.833',-0.290,0.115
'20:00.836',-0.270,0.120
'20:00.839',-0.230,0.125
'20:00.842',-0.235,0.150
'20:00.844',-0.250,0.150
'20:00.847',-0.275,0.130
'20:00.850',-0.295,0.115
'20:00.853',-0.280,0.120
'20:00.856',-0.245,0.145
'20:00.858',-0.225,0.150
'20:00.861',-0.230,0.155
'20:00.864',-0.230,0.120
'20:00.867',-0.215,0.105
'20:00.869',-0.200,0.110
'20:00.872',-0.180,0.125
'20:00.875',-0.135,0.125
'20:00.878',-0.120,0.110
'20:00.881',-0.130,0.125
'20:00.883',-0.145,0.105
'20:00.886',-0.150,0.120
'20:00.889',-0.105,0.135
'20:00.892',-0.080,0.130
'20:00.894',-0.070,0.105
'20:00.897',-0.045,0.080
'20:00.900',-0.025,0.065
'20:00.903',-0.015,0.075
'20:00.906',0.005,0.090
'20:00.908',0.020,0.105
'20:00.911',0.030,0.095
'20:00.914',0.020,0.075
'20:00.917',0.025,0.070
'20:00.919',0.055,0.075
'20:00.922',0.075,0.085
'20:00.925',0.085,0.105
'20:00.928',0.090,0.075
'20:00.931',0.090,0.070
'20:00.933',0.090,0.050
'20:00.936',0.110,0.045
'20:00.939',0.120,0.070
'20:00.942',0.140,0.070
'20:00.944',0.170,0.055
'20:00.947',0.175,0.035
'20:00.950',0.165,0.040
'20:00.953',0.160,0.040
'20:00.956',0.150,0.045
'20:00.958',0.175,0.070
'20:00.961',0.175,0.080
'20:00.964',0.155,0.060
'20:00.967',0.125,0.035
'20:00.969',0.095,0.050
'20:00.972',0.080,0.065
'20:00.975',0.075,0.075
'20:00.978',0.075,0.090
'20:00.981',0.055,0.085
'20:00.983',0.010,0.085
'20:00.986',-0.020,0.085
'20:00.989',-0.020,0.105
'20:00.992',-0.040,0.120
'20:00.994',-0.060,0.130
'20:00.997',-0.090,0.105
'20:01.000',-0.115,0.110
'20:01.003',-0.150,0.090
'20:01.006',-0.145,0.140
'20:01.008',-0.155,0.150
'20:01.011',-0.170,0.140
'20:01.014',-0.210,0.120
'20:01.017',-0.245,0.125
'20:01.019',-0.260,0.130
'20:01.022',-0.245,0.140
'20:01.025',-0.235,0.160
'20:01.028',-0.260,0.160
'20:01.031',-0.290,0.135
'20:01.033',-0.320,0.135
'20:01.036',-0.325,0.130
'20:01.039',-0.295,0.150
'20:01.042',-0.280,0.165
'20:01.044',-0.265,0.150
'20:01.047',-0.265,0.120
'20:01.050',-0.280,0.120
'20:01.053',-0.275,0.115
'20:01.056',-0.290,0.145
'20:01.058',-0.290,0.155
'20:01.061',-0.290,0.145
'20:01.064',-0.300,0.140
'20:01.067',-0.290,0.110
'20:01.069',-0.285,0.110
'20:01.072',-0.285,0.115
'20:01.075',-0.290,0.135
'20:01.078',-0.320,0.125
'20:01.081',-0.335,0.130
'20:01.083',-0.320,0.105
'20:01.086',-0.315,0.120
'20:01.089',-0.300,0.120
'20:01.092',-0.290,0.160
'20:01.094',-0.285,0.145
'20:01.097',-0.295,0.125
'20:01.100',-0.310,0.125
'20:01.103',-0.305,0.140
'20:01.106',-0.290,0.160
'20:01.108',-0.260,0.170
'20:01.111',-0.240,0.175
'20:01.114',-0.255,0.145
'20:01.117',-0.275,0.155
'20:01.119',-0.270,0.135
'20:01.122',-0.250,0.155
'20:01.125',-0.220,0.170
'20:01.128',-0.210,0.160
'20:01.131',-0.225,0.155
'20:01.133',-0.235,0.155
'20:01.136',-0.220,0.155
'20:01.139',-0.185,0.155
'20:01.142',-0.145,0.150
'20:01.144',-0.140,0.130
'20:01.147',-0.175,0.105
'20:01.150',-0.235,0.095
'20:01.153',-0.270,0.100
'20:01.156',-0.295,0.115
'20:01.158',-0.295,0.150
'20:01.161',-0.280,0.135
'20:01.164',-0.285,0.115
'20:01.167',-0.295,0.100
'20:01.169',-0.300,0.105
'20:01.172',-0.310,0.120
'20:01.175',-0.310,0.130
'20:01.178',-0.295,0.135
'20:01.181',-0.295,0.120
'20:01.183',-0.305,0.105
'20:01.186',-0.320,0.125
'20:01.189',-0.320,0.140
'20:01.192',-0.330,0.155
'20:01.194',-0.320,0.155
'20:01.197',-0.325,0.125
'20:01.200',-0.340,0.120
'20:01.203',-0.345,0.100
'20:01.206',-0.335,0.100
'20:01.208',-0.325,0.125
'20:01.211',-0.305,0.125
'20:01.214',-0.320,0.110
'20:01.217',-0.330,0.090
'20:01.219',-0.345,0.095
'20:01.222',-0.335,0.125
'20:01.225',-0.320,0.140
'20:01.228',-0.305,0.130
'20:01.231',-0.295,0.125
'20:01.233',-0.305,0.110
'20:01.236',-0.310,0.115
'20:01.239',-0.325,0.115
'20:01.242',-0.310,0.130
'20:01.244',-0.315,0.140
'20:01.247',-0.310,0.130
'20:01.250',-0.325,0.100
'20:01.253',-0.340,0.110
'20:01.256',-0.320,0.125
'20:01.258',-0.300,0.145
'20:01.261',-0.290,0.140
'20:01.264',-0.305,0.110
'20:01.267',-0.315,0.105
'20:01.269',-0.330,0.115
'20:01.272',-0.315,0.120
'20:01.275',-0.295,0.135
'20:01.278',-0.295,0.125
'20:01.281',-0.295,0.115
'20:01.283',-0.295,0.085
'20:01.286',-0.300,0.090
'20:01.289',-0.290,0.110
'20:01.292',-0.265,0.135
'20:01.294',-0.255,0.135
'20:01.297',-0.245,0.160
'20:01.300',-0.230,0.140
'20:01.303',-0.150,0.160
'20:01.306',-0.025,0.145
'20:01.308',0.100,0.105
'20:01.311',0.200,0.060
'20:01.314',0.330,-0.005
'20:01.317',0.470,-0.045
'20:01.319',0.600,-0.095
'20:01.322',0.675,-0.180
'20:01.325',0.675,-0.225
'20:01.328',0.565,-0.255
'20:01.331',0.400,-0.290
'20:01.333',0.230,-0.270
'20:01.336',-0.010,-0.260
'20:01.339',-0.305,-0.205
'20:01.342',-0.575,-0.150
'20:01.344',-0.775,-0.125
'20:01.347',-0.880,-0.100
'20:01.350',-0.880,-0.070
'20:01.353',-0.805,-0.020
'20:01.356',-0.725,0.065
'20:01.358',-0.655,0.100
'20:01.361',-0.590,0.120
'20:01.364',-0.515,0.100
'20:01.367',-0.445,0.100
'20:01.369',-0.390,0.080
'20:01.372',-0.325,0.090
'20:01.375',-0.275,0.110
'20:01.378',-0.245,0.095
'20:01.381',-0.260,0.095
'20:01.383',-0.285,0.100
'20:01.386',-0.320,0.100
'20:01.389',-0.315,0.135
'20:01.392',-0.275,0.135
'20:01.394',-0.270,0.130
'20:01.397',-0.260,0.110
'20:01.400',-0.265,0.100
'20:01.403',-0.260,0.105
'20:01.406',-0.230,0.125
'20:01.408',-0.200,0.135
'20:01.411',-0.200,0.135
'20:01.414',-0.210,0.105
'20:01.417',-0.225,0.090
'20:01.419',-0.210,0.110
'20:01.422',-0.210,0.135
'20:01.425',-0.180,0.130
'20:01.428',-0.155,0.115
'20:01.431',-0.160,0.115
'20:01.433',-0.165,0.085
'20:01.436',-0.150,0.080
'20:01.439',-0.135,0.105
'20:01.442',-0.115,0.120
'20:01.444',-0.110,0.110
'20:01.447',-0.095,0.080
'20:01.450',-0.095,0.075
'20:01.453',-0.090,0.075
'20:01.456',-0.055,0.095
'20:01.458',-0.025,0.105
'20:01.461',0.015,0.090
'20:01.464',0.020,0.060
'20:01.467',0.015,0.040
'20:01.469',0.030,0.045
'20:01.472',0.050,0.055
'20:01.475',0.090,0.060
'20:01.478',0.100,0.065
'20:01.481',0.100,0.050
'20:01.483',0.095,0.040
'20:01.486',0.095,0.045
'20:01.489',0.120,0.040
'20:01.492',0.145,0.050
'20:01.494',0.190,0.040
'20:01.497',0.185,0.035
'20:01.500',0.175,0.025
'20:01.503',0.185,0.020
'20:01.506',0.185,0.025
'20:01.508',0.195,0.050
'20:01.511',0.195,0.040
'20:01.514',0.165,0.030
'20:01.517',0.135,0.015
'20:01.519',0.120,0.030
'20:01.522',0.115,0.050
'20:01.525',0.120,0.055
'20:01.528',0.125,0.065
'20:01.531',0.110,0.050
'20:01.533',0.090,0.040
'20:01.536',0.075,0.045
'20:01.539',0.065,0.070
'20:01.542',0.060,0.085
'20:01.544',0.045,0.085
'20:01.547',0.010,0.070
'20:01.550',-0.030,0.065
'20:01.553',-0.085,0.080
'20:01.556',-0.120,0.095
'20:01.558',-0.145,0.125
'20:01.561',-0.135,0.115
'20:01.564',-0.140,0.100
'20:01.567',-0.170,0.095
'20:01.569',-0.190,0.100
'20:01.572',-0.200,0.130
'20:01.575',-0.195,0.145
'20:01.578',-0.205,0.135
'20:01.581',-0.215,0.105
'20:01.583',-0.235,0.095
'20:01.586',-0.260,0.100
'20:01.589',-0.260,0.110
'20:01.592',-0.260,0.135
'20:01.594',-0.255,0.130
'20:01.597',-0.255,0.110
'20:01.600',-0.275,0.095
'20:01.603',-0.290,0.105
'20:01.606',-0.270,0.105
'20:01.608',-0.245,0.125
'20:01.611',-0.235,0.120
'20:01.614',-0.250,0.115
'20:01.617',-0.270,0.095
'20:01.619',-0.275,0.105
'20:01.622',-0.285,0.105
'20:01.625',-0.275,0.120
'20:01.628',-0.280,0.120
'20:01.631',-0.295,0.105
'20:01.633',-0.300,0.095
'20:01.636',-0.300,0.105
'20:01.639',-0.315,0.120
'20:01.642',-0.290,0.145
'20:01.644',-0.270,0.130
'20:01.647',-0.260,0.105
'20:01.650',-0.255,0.095
'20:01.653',-0.250,0.110
'20:01.656',-0.245,0.130
'20:01.658',-0.250,0.135
'20:01.661',-0.235,0.150
'20:01.664',-0.245,0.145
'20:01.667',-0.230,0.135
'20:01.669',-0.235,0.135
'20:01.672',-0.240,0.145
'20:01.675',-0.240,0.160
'20:01.678',-0.210,0.160
'20:01.681',-0.215,0.150
'20:01.683',-0.215,0.135
'20:01.686',-0.185,0.150
'20:01.689',-0.185,0.145
'20:01.692',-0.155,0.155
'20:01.694',-0.155,0.140
'20:01.697',-0.175,0.125
'20:01.700',-0.210,0.095
'20:01.703',-0.220,0.100
'20:01.706',-0.220,0.115
'20:01.708',-0.215,0.125
'20:01.711',-0.215,0.115
'20:01.714',-0.240,0.090
'20:01.717',-0.275,0.070
'20:01.719',-0.290,0.090
'20:01.722',-0.295,0.110
'20:01.725',-0.295,0.130
'20:01.728',-0.260,0.120
'20:01.731',-0.260,0.115
'20:01.733',-0.270,0.110
'20:01.736',-0.275,0.120
'20:01.739',-0.295,0.140
'20:01.742',-0.315,0.155
'20:01.744',-0.290,0.155
'20:01.747',-0.290,0.115
'20:01.750',-0.300,0.095
'20:01.753',-0.305,0.095
'20:01.756',-0.310,0.115
'20:01.758',-0.295,0.135
'20:01.761',-0.285,0.125
'20:01.764',-0.290,0.115
'20:01.767',-0.285,0.095
'20:01.769',-0.290,0.090
'20:01.772',-0.285,0.105
'20:01.775',-0.270,0.115
'20:01.778',-0.265,0.115
'20:01.781',-0.270,0.105
'20:01.783',-0.305,0.090
'20:01.786',-0.315,0.105
'20:01.789',-0.315,0.135
'20:01.792',-0.300,0.145
'20:01.794',-0.290,0.145
'20:01.797',-0.290,0.120
'20:01.800',-0.280,0.100
'20:01.803',-0.275,0.105
'20:01.806',-0.265,0.110
'20:01.808',-0.270,0.110
'20:01.811',-0.285,0.115
'20:01.814',-0.290,0.115
'20:01.817',-0.295,0.115
'20:01.819',-0.290,0.105
'20:01.822',-0.275,0.125
'20:01.825',-0.255,0.135
'20:01.828',-0.275,0.135
'20:01.831',-0.285,0.120
'20:01.833',-0.335,0.115
'20:01.836',-0.340,0.135
'20:01.839',-0.315,0.170
'20:01.842',-0.250,0.195
'20:01.844',-0.185,0.175
'20:01.847',-0.065,0.145
'20:01.850',0.070,0.085
'20:01.853',0.235,0.050
'20:01.856',0.400,0.010
'20:01.858',0.565,-0.030
'20:01.861',0.695,-0.105
'20:01.864',0.765,-0.180
'20:01.867',0.720,-0.235
'20:01.869',0.600,-0.245
'20:01.872',0.435,-0.235
'20:01.875',0.225,-0.210
'20:01.878',-0.110,-0.175
'20:01.881',-0.475,-0.150
'20:01.883',-0.760,-0.110
'20:01.886',-0.900,-0.065
'20:01.889',-0.880,-0.005
'20:01.892',-0.750,0.055
'20:01.894',-0.635,0.080
'20:01.897',-0.570,0.090
'20:01.900',-0.530,0.070
'20:01.903',-0.470,0.080
'20:01.906',-0.395,0.120
'20:01.908',-0.330,0.120
'20:01.911',-0.295,0.110
'20:01.914',-0.275,0.105
'20:01.917',-0.275,0.090
'20:01.919',-0.260,0.085
'20:01.922',-0.255,0.110
'20:01.925',-0.235,0.130
'20:01.928',-0.250,0.130
'20:01.931',-0.245,0.095
'20:01.933',-0.240,0.080
'20:01.936',-0.235,0.095
'20:01.939',-0.230,0.120
'20:01.942',-0.195,0.125
'20:01.944',-0.200,0.140
'20:01.947',-0.195,0.115
'20:01.950',-0.190,0.100
'20:01.953',-0.180,0.100
'20:01.956',-0.145,0.115
'20:01.958',-0.095,0.115
'20:01.961',-0.090,0.110
'20:01.964',-0.110,0.095
'20:01.967',-0.130,0.080
'20:01.969',-0.140,0.085
'20:01.972',-0.135,0.105
'20:01.975',-0.100,0.120
'20:01.978',-0.080,0.100
'20:01.981',-0.065,0.085
'20:01.983',-0.085,0.065
'20:01.986',-0.085,0.070
'20:01.989',-0.055,0.090
'20:01.992',-0.030,0.105
'20:01.994',0.005,0.105
'20:01.997',0.010,0.095
'20:02.000',0.000,0.075
'20:02.003',0.015,0.075
'20:02.006',0.055,0.070
'20:02.008',0.090,0.090
'20:02.011',0.125,0.090
'20:02.014',0.135,0.060
'20:02.017',0.135,0.050
'20:02.019',0.145,0.055
'20:02.022',0.150,0.055
'20:02.025',0.155,0.070
'20:02.028',0.165,0.065
'20:02.031',0.175,0.040
'20:02.033',0.160,0.035
'20:02.036',0.155,0.050
'20:02.039',0.180,0.065
'20:02.042',0.195,0.075
'20:02.044',0.205,0.080
'20:02.047',0.205,0.045
'20:02.050',0.185,0.020
'20:02.053',0.175,0.020
'20:02.056',0.200,0.045
'20:02.058',0.210,0.055
'20:02.061',0.215,0.060
'20:02.064',0.205,0.045
'20:02.067',0.185,0.030
'20:02.069',0.155,0.040
'20:02.072',0.120,0.055
'20:02.075',0.105,0.080
'20:02.078',0.100,0.075
'20:02.081',0.095,0.075
'20:02.083',0.055,0.050
'20:02.086',0.035,0.060
'20:02.089',0.005,0.080
'20:02.092',-0.010,0.095
'20:02.094',-0.020,0.100
'20:02.097',-0.050,0.095
'20:02.100',-0.080,0.080
'20:02.103',-0.110,0.080
'20:02.106',-0.130,0.095
'20:02.108',-0.130,0.120
'20:02.111',-0.135,0.115
'20:02.114',-0.160,0.115
'20:02.117',-0.195,0.100
'20:02.119',-0.210,0.105
'20:02.122',-0.200,0.135
'20:02.125',-0.180,0.135
'20:02.128',-0.170,0.120
'20:02.131',-0.195,0.105
'20:02.133',-0.235,0.095
'20:02.136',-0.280,0.095
'20:02.139',-0.275,0.110
'20:02.142',-0.240,0.135
'20:02.144',-0.225,0.125
'20:02.147',-0.225,0.110
'20:02.150',-0.245,0.095
'20:02.153',-0.250,0.105
'20:02.156',-0.260,0.105
'20:02.158',-0.250,0.120
'20:02.161',-0.240,0.120
'20:02.164',-0.245,0.095
'20:02.167',-0.265,0.105
'20:02.169',-0.280,0.110
'20:02.172',-0.265,0.125
'20:02.175',-0.255,0.130
'20:02.178',-0.245,0.120
'20:02.181',-0.250,0.115
'20:02.183',-0.260,0.105
'20:02.186',-0.265,0.110
'20:02.189',-0.260,0.125
'20:02.192',-0.250,0.150
'20:02.194',-0.230,0.150
'20:02.197',-0.230,0.130
'20:02.200',-0.235,0.110
'20:02.203',-0.240,0.110
'20:02.206',-0.240,0.125
'20:02.208',-0.230,0.135
'20:02.211',-0.225,0.140
'20:02.214',-0.230,0.120
'20:02.217',-0.240,0.120
'20:02.219',-0.240,0.125
'20:02.222',-0.210,0.145
'20:02.225',-0.190,0.150
'20:02.228',-0.175,0.150
'20:02.231',-0.175,0.145
'20:02.233',-0.170,0.125
'20:02.236',-0.160,0.110
'20:02.239',-0.150,0.145
'20:02.242',-0.155,0.165
'20:02.244',-0.145,0.140
'20:02.247',-0.160,0.130
'20:02.250',-0.170,0.115
'20:02.253',-0.210,0.110
'20:02.256',-0.225,0.110
'20:02.258',-0.215,0.145
'20:02.261',-0.205,0.115
'20:02.264',-0.195,0.110
'20:02.267',-0.210,0.090
'20:02.269',-0.235,0.085
'20:02.272',-0.255,0.105
'20:02.275',-0.260,0.120
'20:02.278',-0.250,0.105
'20:02.281',-0.230,0.105
'20:02.283',-0.240,0.110
'20:02.286',-0.230,0.085
'20:02.289',-0.240,0.090
'20:02.292',-0.260,0.105
'20:02.294',-0.275,0.115
'20:02.297',-0.290,0.105
'20:02.300',-0.285,0.100
'20:02.303',-0.285,0.095
'20:02.306',-0.285,0.115
'20:02.308',-0.285,0.120
'20:02.311',-0.265,0.105
'20:02.314',-0.265,0.105
'20:02.317',-0.280,0.095
'20:02.319',-0.290,0.095
'20:02.322',-0.285,0.115
'20:02.325',-0.270,0.125
'20:02.328',-0.255,0.105
'20:02.331',-0.255,0.105
'20:02.333',-0.265,0.100
'20:02.336',-0.265,0.105
'20:02.339',-0.255,0.110
'20:02.342',-0.255,0.130
'20:02.344',-0.235,0.130
'20:02.347',-0.245,0.120
'20:02.350',-0.260,0.095
'20:02.353',-0.265,0.095
'20:02.356',-0.250,0.095
'20:02.358',-0.230,0.120
'20:02.361',-0.230,0.110
'20:02.364',-0.255,0.095
'20:02.367',-0.285,0.090
'20:02.369',-0.300,0.080
'20:02.372',-0.280,0.100
'20:02.375',-0.250,0.105
'20:02.378',-0.240,0.095
'20:02.381',-0.245,0.095
'20:02.383',-0.260,0.100
'20:02.386',-0.275,0.115
'20:02.389',-0.270,0.125
'20:02.392',-0.245,0.140
'20:02.394',-0.235,0.135
'20:02.397',-0.245,0.125
'20:02.400',-0.260,0.130
'20:02.403',-0.235,0.150
'20:02.406',-0.125,0.180
'20:02.408',0.000,0.160
'20:02.411',0.140,0.120
'20:02.414',0.275,0.050
'20:02.417',0.410,-0.010
'20:02.419',0.565,-0.060
'20:02.422',0.730,-0.095
'20:02.425',0.820,-0.135
'20:02.428',0.855,-0.180
'20:02.431',0.750,-0.235
'20:02.433',0.575,-0.245
'20:02.436',0.420,-0.245
'20:02.439',0.185,-0.210
'20:02.442',-0.120,-0.175
'20:02.444',-0.445,-0.140
'20:02.447',-0.745,-0.110
'20:02.450',-0.880,-0.080
'20:02.453',-0.855,-0.035
'20:02.456',-0.730,0.020
'20:02.458',-0.605,0.080
'20:02.461',-0.520,0.110
'20:02.464',-0.460,0.095
'20:02.467',-0.390,0.095
'20:02.469',-0.340,0.095
'20:02.472',-0.285,0.110
'20:02.475',-0.240,0.125
'20:02.478',-0.235,0.115
'20:02.481',-0.260,0.095
'20:02.483',-0.260,0.075
'20:02.486',-0.225,0.075
'20:02.489',-0.220,0.095
'20:02.492',-0.205,0.120
'20:02.494',-0.205,0.130
'20:02.497',-0.200,0.110
'20:02.500',-0.205,0.090
'20:02.503',-0.200,0.110
'20:02.506',-0.190,0.120
'20:02.508',-0.180,0.130
'20:02.511',-0.180,0.130
'20:02.514',-0.175,0.125
'20:02.517',-0.170,0.105
'20:02.519',-0.155,0.105
'20:02.522',-0.150,0.110
'20:02.525',-0.110,0.120
'20:02.528',-0.100,0.120
'20:02.531',-0.095,0.105
'20:02.533',-0.100,0.085
'20:02.536',-0.105,0.075
'20:02.539',-0.080,0.095
'20:02.542',-0.050,0.125
'20:02.544',-0.030,0.085
'20:02.547',-0.015,0.080
'20:02.550',-0.015,0.070
'20:02.553',-0.005,0.075
'20:02.556',0.040,0.075
'20:02.558',0.070,0.095
'20:02.561',0.085,0.105
'20:02.564',0.050,0.095
'20:02.567',0.045,0.075
'20:02.569',0.035,0.080
'20:02.572',0.070,0.080
'20:02.575',0.125,0.100
'20:02.578',0.155,0.100
'20:02.581',0.170,0.060
'20:02.583',0.185,0.045
'20:02.586',0.200,0.050
'20:02.589',0.220,0.060
'20:02.592',0.230,0.070
'20:02.594',0.225,0.055
'20:02.597',0.210,0.055
'20:02.600',0.215,0.040
'20:02.603',0.210,0.060
'20:02.606',0.220,0.080
'20:02.608',0.235,0.085
'20:02.611',0.230,0.080
'20:02.614',0.220,0.055
'20:02.617',0.190,0.050
'20:02.619',0.175,0.045
'20:02.622',0.170,0.060
'20:02.625',0.150,0.085
'20:02.628',0.145,0.090
'20:02.631',0.125,0.090
'20:02.633',0.100,0.095
'20:02.636',0.070,0.085
'20:02.639',0.050,0.095
'20:02.642',0.060,0.115
'20:02.644',0.060,0.110
'20:02.647',0.015,0.090
'20:02.650',-0.025,0.095
'20:02.653',-0.060,0.100
'20:02.656',-0.075,0.110
'20:02.658',-0.080,0.125
'20:02.661',-0.095,0.125
'20:02.664',-0.130,0.135
'20:02.667',-0.155,0.110
'20:02.669',-0.170,0.115
'20:02.672',-0.170,0.125
'20:02.675',-0.170,0.145
'20:02.678',-0.175,0.145
'20:02.681',-0.195,0.145
'20:02.683',-0.220,0.135
'20:02.686',-0.240,0.140
'20:02.689',-0.245,0.150
'20:02.692',-0.225,0.155
'20:02.694',-0.215,0.130
'20:02.697',-0.240,0.130
'20:02.700',-0.240,0.120
'20:02.703',-0.235,0.130
'20:02.706',-0.230,0.160
'20:02.708',-0.215,0.165
'20:02.711',-0.215,0.155
'20:02.714',-0.225,0.145
'20:02.717',-0.245,0.115
'20:02.719',-0.235,0.125
'20:02.722',-0.235,0.145
'20:02.725',-0.230,0.165
'20:02.728',-0.225,0.165
'20:02.731',-0.220,0.145
'20:02.733',-0.225,0.130
'20:02.736',-0.225,0.120
'20:02.739',-0.235,0.140
'20:02.742',-0.250,0.155
'20:02.744',-0.260,0.165
'20:02.747',-0.260,0.165
'20:02.750',-0.250,0.150
'20:02.753',-0.215,0.160
'20:02.756',-0.195,0.170
'20:02.758',-0.165,0.175
'20:02.761',-0.160,0.180
'20:02.764',-0.170,0.160
'20:02.767',-0.210,0.160
'20:02.769',-0.215,0.160
'20:02.772',-0.200,0.190
'20:02.775',-0.170,0.195
'20:02.778',-0.155,0.190
'20:02.781',-0.130,0.175
'20:02.783',-0.130,0.150
'20:02.786',-0.145,0.130
'20:02.789',-0.160,0.125
'20:02.792',-0.170,0.140
'20:02.794',-0.180,0.140
'20:02.797',-0.190,0.130
'20:02.800',-0.200,0.130
'20:02.803',-0.205,0.125
'20:02.806',-0.205,0.135
'20:02.808',-0.195,0.155
'20:02.811',-0.195,0.140
'20:02.814',-0.200,0.130
'20:02.817',-0.235,0.115
'20:02.819',-0.265,0.135
'20:02.822',-0.250,0.155
'20:02.825',-0.235,0.165
'20:02.828',-0.230,0.175
'20:02.831',-0.270,0.150
'20:02.833',-0.295,0.145
'20:02.836',-0.290,0.140
'20:02.839',-0.265,0.170
'20:02.842',-0.245,0.160
'20:02.844',-0.250,0.165
'20:02.847',-0.265,0.155
'20:02.850',-0.280,0.150
'20:02.853',-0.280,0.140
'20:02.856',-0.280,0.165
'20:02.858',-0.270,0.185
'20:02.861',-0.260,0.175
'20:02.864',-0.230,0.150
'20:02.867',-0.260,0.145
'20:02.869',-0.285,0.130
'20:02.872',-0.290,0.160
'20:02.875',-0.280,0.180
'20:02.878',-0.280,0.185
'20:02.881',-0.275,0.175
'20:02.883',-0.290,0.180
'20:02.886',-0.285,0.165
'20:02.889',-0.265,0.165
'20:02.892',-0.250,0.180
'20:02.894',-0.250,0.140
'20:02.897',-0.250,0.125
'20:02.900',-0.260,0.125
'20:02.903',-0.270,0.145
'20:02.906',-0.265,0.145
'20:02.908',-0.260,0.170
'20:02.911',-0.225,0.175
'20:02.914',-0.230,0.150
'20:02.917',-0.245,0.145
'20:02.919',-0.255,0.145
'20:02.922',-0.255,0.145
'20:02.925',-0.240,0.170
'20:02.928',-0.245,0.160
'20:02.931',-0.260,0.150
'20:02.933',-0.265,0.130
'20:02.936',-0.280,0.150
'20:02.939',-0.265,0.160
'20:02.942',-0.275,0.185
'20:02.944',-0.270,0.175
'20:02.947',-0.265,0.195
'20:02.950',-0.220,0.180
'20:02.953',-0.125,0.195
'20:02.956',0.020,0.160
'20:02.958',0.195,0.145
'20:02.961',0.365,0.110
'20:02.964',0.515,0.040
'20:02.967',0.670,0.000
'20:02.969',0.795,-0.060
'20:02.972',0.905,-0.115
'20:02.975',0.930,-0.135
'20:02.978',0.860,-0.195
'20:02.981',0.700,-0.250
'20:02.983',0.515,-0.275
'20:02.986',0.300,-0.270
'20:02.989',0.000,-0.220
'20:02.992',-0.325,-0.170
'20:02.994',-0.595,-0.150
'20:02.997',-0.805,-0.130
'20:03.000',-0.880,-0.075
'20:03.003',-0.815,-0.015
'20:03.006',-0.705,0.045
'20:03.008',-0.585,0.115
'20:03.011',-0.510,0.115
'20:03.014',-0.465,0.125
'20:03.017',-0.410,0.125
'20:03.019',-0.365,0.125
'20:03.022',-0.330,0.135
'20:03.025',-0.295,0.155
'20:03.028',-0.290,0.165
'20:03.031',-0.290,0.150
'20:03.033',-0.280,0.145
'20:03.036',-0.275,0.150
'20:03.039',-0.245,0.165
'20:03.042',-0.215,0.165
'20:03.044',-0.200,0.160
'20:03.047',-0.205,0.155
'20:03.050',-0.220,0.135
'20:03.053',-0.225,0.140
'20:03.056',-0.215,0.150
'20:03.058',-0.190,0.160
'20:03.061',-0.155,0.165
'20:03.064',-0.165,0.145
'20:03.067',-0.180,0.135
'20:03.069',-0.195,0.130
'20:03.072',-0.185,0.150
'20:03.075',-0.155,0.160
'20:03.078',-0.125,0.145
'20:03.081',-0.120,0.140
'20:03.083',-0.135,0.120
'20:03.086',-0.145,0.120
'20:03.089',-0.155,0.135
'20:03.092',-0.145,0.150
'20:03.094',-0.100,0.140
'20:03.097',-0.085,0.145
'20:03.100',-0.075,0.120
'20:03.103',-0.075,0.140
'20:03.106',-0.045,0.145
'20:03.108',-0.005,0.150
'20:03.111',0.000,0.145
'20:03.114',-0.005,0.115
'20:03.117',-0.010,0.085
'20:03.119',0.005,0.095
'20:03.122',0.055,0.110
'20:03.125',0.080,0.115
'20:03.128',0.085,0.120
'20:03.131',0.085,0.105
'20:03.133',0.090,0.075
'20:03.136',0.110,0.080
'20:03.139',0.135,0.105
'20:03.142',0.155,0.095
'20:03.144',0.155,0.100
'20:03.147',0.160,0.090
'20:03.150',0.180,0.060
'20:03.153',0.170,0.070
'20:03.156',0.165,0.090
'20:03.158',0.190,0.095
'20:03.161',0.210,0.085
'20:03.164',0.215,0.080
'20:03.167',0.200,0.055
'20:03.169',0.190,0.055
'20:03.172',0.175,0.070
'20:03.175',0.190,0.105
'20:03.178',0.175,0.105
'20:03.181',0.175,0.085
'20:03.183',0.150,0.080
'20:03.186',0.150,0.090
'20:03.189',0.140,0.100
'20:03.192',0.145,0.125
'20:03.194',0.125,0.115
'20:03.197',0.100,0.115
'20:03.200',0.080,0.095
'20:03.203',0.045,0.110
'20:03.206',0.020,0.125
'20:03.208',0.005,0.140
'20:03.211',-0.005,0.145
'20:03.214',-0.015,0.120
'20:03.217',-0.040,0.120
'20:03.219',-0.065,0.125
'20:03.222',-0.115,0.155
'20:03.225',-0.135,0.175
'20:03.228',-0.170,0.170
'20:03.231',-0.170,0.175
'20:03.233',-0.190,0.145
'20:03.236',-0.185,0.155
'20:03.239',-0.195,0.155
'20:03.242',-0.195,0.165
'20:03.244',-0.215,0.160
'20:03.247',-0.235,0.155
'20:03.250',-0.250,0.140
'20:03.253',-0.260,0.155
'20:03.256',-0.260,0.175
'20:03.258',-0.255,0.175
'20:03.261',-0.235,0.150
'20:03.264',-0.230,0.145
'20:03.267',-0.235,0.120
'20:03.269',-0.250,0.130
'20:03.272',-0.250,0.150
'20:03.275',-0.255,0.175
'20:03.278',-0.255,0.175
'20:03.281',-0.260,0.155
'20:03.283',-0.285,0.155
'20:03.286',-0.295,0.160
'20:03.289',-0.295,0.170
'20:03.292',-0.280,0.170
'20:03.294',-0.255,0.175
'20:03.297',-0.255,0.155
'20:03.300',-0.265,0.125
'20:03.303',-0.255,0.135
'20:03.306',-0.235,0.145
'20:03.308',-0.225,0.180
'20:03.311',-0.235,0.175
'20:03.314',-0.245,0.170
'20:03.317',-0.250,0.150
'20:03.319',-0.240,0.140
'20:03.322',-0.230,0.155
'20:03.325',-0.230,0.190
'20:03.328',-0.235,0.190
'20:03.331',-0.240,0.180
'20:03.333',-0.245,0.160
'20:03.336',-0.250,0.170
'20:03.339',-0.220,0.190
'20:03.342',-0.190,0.195
'20:03.344',-0.155,0.180
'20:03.347',-0.150,0.175
'20:03.350',-0.170,0.145
'20:03.353',-0.175,0.130
'20:03.356',-0.185,0.155
'20:03.358',-0.190,0.165
'20:03.361',-0.190,0.155
'20:03.364',-0.190,0.135
'20:03.367',-0.190,0.105
'20:03.369',-0.190,0.090
'20:03.372',-0.205,0.105
'20:03.375',-0.220,0.120
'20:03.378',-0.245,0.110
'20:03.381',-0.275,0.115
'20:03.383',-0.310,0.115
'20:03.386',-0.335,0.120
'20:03.389',-0.310,0.140
'20:03.392',-0.280,0.155
'20:03.394',-0.245,0.135
'20:03.397',-0.250,0.145
'20:03.400',-0.295,0.115
'20:03.403',-0.335,0.125
'20:03.406',-0.330,0.140
'20:03.408',-0.315,0.165
'20:03.411',-0.275,0.145
'20:03.414',-0.280,0.135
'20:03.417',-0.300,0.105
'20:03.419',-0.325,0.090
'20:03.422',-0.340,0.110
'20:03.425',-0.315,0.130
'20:03.428',-0.310,0.150
'20:03.431',-0.295,0.130
'20:03.433',-0.285,0.115
'20:03.436',-0.280,0.110
'20:03.439',-0.260,0.115
'20:03.442',-0.240,0.140
'20:03.444',-0.250,0.125
'20:03.447',-0.255,0.115
'20:03.450',-0.270,0.105
'20:03.453',-0.275,0.105
'20:03.456',-0.270,0.120
'20:03.458',-0.255,0.155
'20:03.461',-0.260,0.145
'20:03.464',-0.280,0.115
'20:03.467',-0.305,0.110
'20:03.469',-0.305,0.095
'20:03.472',-0.285,0.120
'20:03.475',-0.260,0.135
'20:03.478',-0.265,0.135
'20:03.481',-0.270,0.125
'20:03.483',-0.290,0.110
'20:03.486',-0.295,0.120
'20:03.489',-0.300,0.145
'20:03.492',-0.270,0.160
'20:03.494',-0.255,0.130
'20:03.497',-0.280,0.125
'20:03.500',-0.305,0.120
'20:03.503',-0.315,0.130
'20:03.506',-0.240,0.180
'20:03.508',-0.135,0.180
'20:03.511',0.010,0.155
'20:03.514',0.185,0.100
'20:03.517',0.355,0.020
'20:03.519',0.540,-0.030
'20:03.522',0.740,-0.075
'20:03.525',0.890,-0.135
'20:03.528',0.955,-0.195
'20:03.531',0.865,-0.260
'20:03.533',0.645,-0.305
'20:03.536',0.445,-0.315
'20:03.539',0.270,-0.300
'20:03.542',0.035,-0.265
'20:03.544',-0.280,-0.240
'20:03.547',-0.605,-0.190
'20:03.550',-0.845,-0.160
'20:03.553',-0.910,-0.100
'20:03.556',-0.830,-0.020
'20:03.558',-0.715,0.080
'20:03.561',-0.615,0.125
'20:03.564',-0.555,0.125
'20:03.567',-0.455,0.110
'20:03.569',-0.380,0.110
'20:03.572',-0.305,0.130
'20:03.575',-0.260,0.135
'20:03.578',-0.250,0.115
'20:03.581',-0.260,0.095
'20:03.583',-0.270,0.090
'20:03.586',-0.280,0.105
'20:03.589',-0.250,0.135
'20:03.592',-0.225,0.140
'20:03.594',-0.210,0.145
'20:03.597',-0.220,0.120
'20:03.600',-0.240,0.095
'20:03.603',-0.260,0.115
'20:03.606',-0.245,0.140
'20:03.608',-0.200,0.155
'20:03.611',-0.175,0.135
'20:03.614',-0.165,0.120
'20:03.617',-0.170,0.105
'20:03.619',-0.145,0.100
'20:03.622',-0.115,0.125
'20:03.625',-0.100,0.125
'20:03.628',-0.095,0.115
'20:03.631',-0.100,0.090
'20:03.633',-0.140,0.095
'20:03.636',-0.165,0.100
'20:03.639',-0.160,0.110
'20:03.642',-0.115,0.130
'20:03.644',-0.060,0.125
'20:03.647',-0.045,0.105
'20:03.650',-0.040,0.080
'20:03.653',-0.040,0.065
'20:03.656',-0.025,0.075
'20:03.658',0.005,0.095
'20:03.661',0.040,0.095
'20:03.664',0.065,0.080
'20:03.667',0.075,0.060
'20:03.669',0.095,0.050
'20:03.672',0.120,0.045
'20:03.675',0.140,0.085
'20:03.678',0.150,0.055
'20:03.681',0.155,0.050
'20:03.683',0.170,0.040
'20:03.686',0.170,0.030
'20:03.689',0.180,0.050
'20:03.692',0.200,0.060
'20:03.694',0.220,0.050
'20:03.697',0.215,0.035
'20:03.700',0.180,0.045
'20:03.703',0.170,0.050
'20:03.706',0.205,0.060
'20:03.708',0.225,0.065
'20:03.711',0.230,0.070
'20:03.714',0.200,0.065
'20:03.717',0.195,0.055
'20:03.719',0.175,0.045
'20:03.722',0.175,0.070
'20:03.725',0.160,0.085
'20:03.728',0.135,0.075
'20:03.731',0.085,0.065
'20:03.733',0.035,0.070
'20:03.736',0.000,0.085
'20:03.739',0.005,0.100
'20:03.742',0.015,0.095
'20:03.744',-0.020,0.110
'20:03.747',-0.055,0.100
'20:03.750',-0.085,0.105
'20:03.753',-0.100,0.120
'20:03.756',-0.105,0.120
'20:03.758',-0.115,0.140
'20:03.761',-0.145,0.135
'20:03.764',-0.185,0.130
'20:03.767',-0.210,0.105
'20:03.769',-0.210,0.110
'20:03.772',-0.195,0.130
'20:03.775',-0.210,0.145
'20:03.778',-0.210,0.130
'20:03.781',-0.230,0.130
'20:03.783',-0.255,0.125
'20:03.786',-0.250,0.145
'20:03.789',-0.250,0.155
'20:03.792',-0.240,0.180
'20:03.794',-0.220,0.175
'20:03.797',-0.210,0.160
'20:03.800',-0.195,0.135
'20:03.803',-0.215,0.120
'20:03.806',-0.240,0.150
'20:03.808',-0.265,0.175
'20:03.811',-0.270,0.160
'20:03.814',-0.270,0.130
'20:03.817',-0.285,0.110
'20:03.819',-0.295,0.130
'20:03.822',-0.275,0.150
'20:03.825',-0.245,0.165
'20:03.828',-0.195,0.155
'20:03.831',-0.190,0.145
'20:03.833',-0.210,0.125
'20:03.836',-0.240,0.125
'20:03.839',-0.255,0.130
'20:03.842',-0.235,0.140
'20:03.844',-0.210,0.170
'20:03.847',-0.225,0.155
'20:03.850',-0.250,0.155
'20:03.853',-0.270,0.170
'20:03.856',-0.240,0.185
'20:03.858',-0.215,0.190
'20:03.861',-0.200,0.190
'20:03.864',-0.200,0.170
'20:03.867',-0.205,0.165
'20:03.869',-0.180,0.170
'20:03.872',-0.150,0.180
'20:03.875',-0.130,0.180
'20:03.878',-0.110,0.175
'20:03.881',-0.125,0.150
'20:03.883',-0.145,0.135
'20:03.886',-0.155,0.125
'20:03.889',-0.170,0.130
'20:03.892',-0.140,0.125
'20:03.894',-0.160,0.115
'20:03.897',-0.240,0.100
'20:03.900',-0.285,0.105
'20:03.903',-0.285,0.110
'20:03.906',-0.255,0.115
'20:03.908',-0.240,0.125
'20:03.911',-0.250,0.140
'20:03.914',-0.285,0.125
'20:03.917',-0.300,0.135
'20:03.919',-0.290,0.135
'20:03.922',-0.280,0.125
'20:03.925',-0.270,0.155
'20:03.928',-0.270,0.140
'20:03.931',-0.285,0.125
'20:03.933',-0.290,0.110
'20:03.936',-0.285,0.100
'20:03.939',-0.255,0.115
'20:03.942',-0.235,0.145
'20:03.944',-0.250,0.140
'20:03.947',-0.265,0.130
'20:03.950',-0.280,0.120
'20:03.953',-0.280,0.125
'20:03.956',-0.255,0.145
'20:03.958',-0.230,0.150
'20:03.961',-0.230,0.135
'20:03.964',-0.240,0.120
'20:03.967',-0.245,0.110
'20:03.969',-0.245,0.110
'20:03.972',-0.255,0.130
'20:03.975',-0.265,0.150
'20:03.978',-0.265,0.145
'20:03.981',-0.265,0.125
'20:03.983',-0.260,0.105
'20:03.986',-0.290,0.115
'20:03.989',-0.280,0.125
'20:03.992',-0.265,0.145
'20:03.994',-0.255,0.120
'20:03.997',-0.250,0.105
'20:04.000',-0.250,0.110
'20:04.003',-0.250,0.115
'20:04.006',-0.255,0.130
'20:04.008',-0.260,0.135
'20:04.011',-0.250,0.140
'20:04.014',-0.260,0.120
'20:04.017',-0.265,0.110
'20:04.019',-0.270,0.115
'20:04.022',-0.250,0.130
'20:04.025',-0.245,0.145
'20:04.028',-0.210,0.145
'20:04.031',-0.175,0.160
'20:04.033',-0.095,0.140
'20:04.036',0.040,0.120
'20:04.039',0.195,0.090
'20:04.042',0.355,0.060
'20:04.044',0.530,0.005
'20:04.047',0.690,-0.065
'20:04.050',0.810,-0.140
'20:04.053',0.860,-0.190
'20:04.056',0.840,-0.250
'20:04.058',0.740,-0.295
'20:04.061',0.565,-0.335
'20:04.064',0.400,-0.345
'20:04.067',0.165,-0.335
'20:04.069',-0.160,-0.285
'20:04.072',-0.480,-0.230
'20:04.075',-0.750,-0.175
'20:04.078',-0.865,-0.125
'20:04.081',-0.885,-0.090
'20:04.083',-0.795,-0.040
'20:04.086',-0.695,0.045
'20:04.089',-0.585,0.085
'20:04.092',-0.495,0.120
'20:04.094',-0.395,0.110
'20:04.097',-0.310,0.100
'20:04.100',-0.245,0.110
'20:04.103',-0.240,0.090
'20:04.106',-0.230,0.105
'20:04.108',-0.220,0.120
'20:04.111',-0.240,0.140
'20:04.114',-0.240,0.120
'20:04.117',-0.245,0.120
'20:04.119',-0.250,0.105
'20:04.122',-0.245,0.130
'20:04.125',-0.205,0.130
'20:04.128',-0.180,0.135
'20:04.131',-0.170,0.125
'20:04.133',-0.180,0.105
'20:04.136',-0.205,0.105
'20:04.139',-0.210,0.120
'20:04.142',-0.195,0.140
'20:04.144',-0.165,0.135
'20:04.147',-0.140,0.130
'20:04.150',-0.115,0.100
'20:04.153',-0.110,0.100
'20:04.156',-0.115,0.100
'20:04.158',-0.115,0.115
'20:04.161',-0.115,0.110
'20:04.164',-0.100,0.110
'20:04.167',-0.110,0.080
'20:04.169',-0.100,0.080
'20:04.172',-0.075,0.100
'20:04.175',-0.040,0.095
'20:04.178',-0.010,0.095
'20:04.181',0.020,0.075
'20:04.183',0.025,0.060
'20:04.186',0.030,0.070
'20:04.189',0.040,0.080
'20:04.192',0.070,0.100
'20:04.194',0.080,0.085
'20:04.197',0.090,0.060
'20:04.200',0.090,0.040
'20:04.203',0.105,0.050
'20:04.206',0.140,0.055
'20:04.208',0.145,0.070
'20:04.211',0.145,0.075
'20:04.214',0.140,0.060
'20:04.217',0.155,0.030
'20:04.219',0.175,0.040
'20:04.222',0.215,0.045
'20:04.225',0.225,0.055
'20:04.228',0.230,0.060
'20:04.231',0.205,0.055
'20:04.233',0.200,0.040
'20:04.236',0.195,0.030
'20:04.239',0.200,0.045
'20:04.242',0.210,0.060
'20:04.244',0.220,0.055
'20:04.247',0.200,0.045
'20:04.250',0.200,0.030
'20:04.253',0.190,0.045
'20:04.256',0.190,0.055
'20:04.258',0.190,0.075
'20:04.261',0.220,0.060
'20:04.264',0.195,0.055
'20:04.267',0.170,0.045
'20:04.269',0.110,0.055
'20:04.272',0.055,0.065
'20:04.275',0.015,0.090
'20:04.278',-0.005,0.095
'20:04.281',-0.025,0.085
'20:04.283',-0.060,0.090
'20:04.286',-0.095,0.105
'20:04.289',-0.110,0.125
'20:04.292',-0.105,0.135
'20:04.294',-0.095,0.125
'20:04.297',-0.105,0.125
'20:04.300',-0.135,0.100
'20:04.303',-0.150,0.100
'20:04.306',-0.175,0.115
'20:04.308',-0.170,0.140
'20:04.311',-0.175,0.130
'20:04.314',-0.170,0.115
'20:04.317',-0.190,0.105
'20:04.319',-0.210,0.105
'20:04.322',-0.235,0.125
'20:04.325',-0.225,0.155
'20:04.328',-0.205,0.145
'20:04.331',-0.195,0.140
'20:04.333',-0.220,0.100
'20:04.336',-0.225,0.085
'20:04.339',-0.225,0.110
'20:04.342',-0.205,0.110
'20:04.344',-0.195,0.115
'20:04.347',-0.190,0.110
'20:04.350',-0.195,0.095
'20:04.353',-0.210,0.090
'20:04.356',-0.220,0.105
'20:04.358',-0.215,0.115
'20:04.361',-0.255,0.115
'20:04.364',-0.260,0.120
'20:04.367',-0.270,0.120
'20:04.369',-0.275,0.135
'20:04.372',-0.270,0.135
'20:04.375',-0.245,0.140
'20:04.378',-0.215,0.145
'20:04.381',-0.195,0.120
'20:04.383',-0.190,0.115
'20:04.386',-0.185,0.120
'20:04.389',-0.170,0.145
'20:04.392',-0.160,0.150
'20:04.394',-0.175,0.150
'20:04.397',-0.175,0.145
'20:04.400',-0.200,0.120
'20:04.403',-0.205,0.125
'20:04.406',-0.190,0.155
'20:04.408',-0.150,0.180
'20:04.411',-0.115,0.170
'20:04.414',-0.120,0.145
'20:04.417',-0.125,0.125
'20:04.419',-0.130,0.120
'20:04.422',-0.140,0.115
'20:04.425',-0.135,0.120
'20:04.428',-0.160,0.090
'20:04.431',-0.180,0.070
'20:04.433',-0.220,0.070
'20:04.436',-0.230,0.080
'20:04.439',-0.225,0.105
'20:04.442',-0.220,0.110
'20:04.444',-0.240,0.105
'20:04.447',-0.255,0.100
'20:04.450',-0.265,0.090
'20:04.453',-0.245,0.095
'20:04.456',-0.235,0.095
'20:04.458',-0.255,0.120
'20:04.461',-0.260,0.105
'20:04.464',-0.260,0.115
'20:04.467',-0.275,0.100
'20:04.469',-0.295,0.080
'20:04.472',-0.285,0.115
'20:04.475',-0.280,0.120
'20:04.478',-0.250,0.120
'20:04.481',-0.250,0.090
'20:04.483',-0.280,0.080
'20:04.486',-0.280,0.085
'20:04.489',-0.275,0.090
'20:04.492',-0.255,0.105
'20:04.494',-0.235,0.115
'20:04.497',-0.235,0.105
'20:04.500',-0.255,0.080
'20:04.503',-0.265,0.085
'20:04.506',-0.260,0.105
'20:04.508',-0.245,0.135
'20:04.511',-0.235,0.095
'20:04.514',-0.250,0.085
'20:04.517',-0.270,0.060
'20:04.519',-0.280,0.085
'20:04.522',-0.265,0.100
'20:04.525',-0.250,0.110
'20:04.528',-0.230,0.105
'20:04.531',-0.215,0.095
'20:04.533',-0.225,0.075
'20:04.536',-0.245,0.085
'20:04.539',-0.260,0.085
'20:04.542',-0.265,0.115
'20:04.544',-0.230,0.100
'20:04.547',-0.240,0.070
'20:04.550',-0.250,0.080
'20:04.553',-0.280,0.110
'20:04.556',-0.270,0.125
'20:04.558',-0.240,0.160
'20:04.561',-0.175,0.160
'20:04.564',-0.070,0.140
'20:04.567',0.060,0.085
'20:04.569',0.210,0.040
'20:04.572',0.380,-0.020
'20:04.575',0.580,-0.070
'20:04.578',0.730,-0.125
'20:04.581',0.810,-0.215
'20:04.583',0.780,-0.275
'20:04.586',0.640,-0.320
'20:04.589',0.455,-0.330
'20:04.592',0.290,-0.315
'20:04.594',0.040,-0.300
'20:04.597',-0.305,-0.265
'20:04.600',-0.660,-0.220
'20:04.603',-0.890,-0.160
'20:04.606',-0.935,-0.085
'20:04.608',-0.825,-0.015
'20:04.611',-0.665,0.060
'20:04.614',-0.555,0.080
'20:04.617',-0.495,0.060
'20:04.619',-0.425,0.065
'20:04.622',-0.355,0.070
'20:04.625',-0.285,0.070
'20:04.628',-0.240,0.070
'20:04.631',-0.225,0.075
'20:04.633',-0.225,0.070
'20:04.636',-0.245,0.070
'20:04.639',-0.235,0.095
'20:04.642',-0.240,0.115
'20:04.644',-0.220,0.120
'20:04.647',-0.205,0.100
'20:04.650',-0.215,0.080
'20:04.653',-0.210,0.080
'20:04.656',-0.185,0.095
'20:04.658',-0.185,0.110
'20:04.661',-0.160,0.105
'20:04.664',-0.155,0.090
'20:04.667',-0.155,0.070
'20:04.669',-0.145,0.075
'20:04.672',-0.115,0.090
'20:04.675',-0.095,0.100
'20:04.678',-0.060,0.100
'20:04.681',-0.080,0.080
'20:04.683',-0.120,0.065
'20:04.686',-0.140,0.065
'20:04.689',-0.120,0.075
'20:04.692',-0.085,0.070
'20:04.694',-0.050,0.080
'20:04.697',-0.045,0.055
'20:04.700',-0.040,0.050
'20:04.703',-0.025,0.050
'20:04.706',0.015,0.045
'20:04.708',0.045,0.060
'20:04.711',0.075,0.065
'20:04.714',0.075,0.050
'20:04.717',0.080,0.035
'20:04.719',0.075,0.040
'20:04.722',0.105,0.045
'20:04.725',0.145,0.055
'20:04.728',0.185,0.045
'20:04.731',0.195,0.030
'20:04.733',0.185,0.000
'20:04.736',0.185,0.000
'20:04.739',0.215,0.020
'20:04.742',0.230,0.030
'20:04.744',0.235,0.010
'20:04.747',0.195,0.020
'20:04.750',0.190,-0.005
'20:04.753',0.190,0.005
'20:04.756',0.210,0.015
'20:04.758',0.240,0.020
'20:04.761',0.250,0.040
'20:04.764',0.235,0.020
'20:04.767',0.230,0.010
'20:04.769',0.210,0.035
'20:04.772',0.195,0.045
'20:04.775',0.175,0.045
'20:04.778',0.180,0.055
'20:04.781',0.140,0.040
'20:04.783',0.100,0.035
'20:04.786',0.080,0.030
'20:04.789',0.080,0.040
'20:04.792',0.090,0.065
'20:04.794',0.090,0.055
'20:04.797',0.030,0.055
'20:04.800',-0.045,0.065
'20:04.803',-0.090,0.075
'20:04.806',-0.080,0.085
'20:04.808',-0.070,0.105
'20:04.811',-0.075,0.090
'20:04.814',-0.110,0.085
'20:04.817',-0.145,0.080
'20:04.819',-0.175,0.100
'20:04.822',-0.175,0.100
'20:04.825',-0.180,0.110
'20:04.828',-0.165,0.095
'20:04.831',-0.175,0.100
'20:04.833',-0.195,0.085
'20:04.836',-0.210,0.075
'20:04.839',-0.215,0.100
'20:04.842',-0.210,0.110
'20:04.844',-0.195,0.115
'20:04.847',-0.195,0.100
'20:04.850',-0.210,0.085
'20:04.853',-0.210,0.085
'20:04.856',-0.220,0.095
'20:04.858',-0.190,0.120
'20:04.861',-0.190,0.090
'20:04.864',-0.205,0.095
'20:04.867',-0.245,0.085
'20:04.869',-0.260,0.090
'20:04.872',-0.245,0.105
'20:04.875',-0.205,0.130
'20:04.878',-0.175,0.105
'20:04.881',-0.205,0.085
'20:04.883',-0.250,0.070
'20:04.886',-0.250,0.080
'20:04.889',-0.230,0.095
'20:04.892',-0.195,0.105
'20:04.894',-0.180,0.100
'20:04.897',-0.190,0.085
'20:04.900',-0.200,0.085
'20:04.903',-0.225,0.085
'20:04.906',-0.200,0.125
'20:04.908',-0.185,0.150
'20:04.911',-0.175,0.130
'20:04.914',-0.175,0.120
'20:04.917',-0.170,0.105
'20:04.919',-0.160,0.115
'20:04.922',-0.155,0.120
'20:04.925',-0.140,0.135
'20:04.928',-0.115,0.130
'20:04.931',-0.130,0.110
'20:04.933',-0.145,0.095
'20:04.936',-0.160,0.110
'20:04.939',-0.170,0.115
'20:04.942',-0.175,0.115
'20:04.944',-0.170,0.105
'20:04.947',-0.170,0.095
'20:04.950',-0.195,0.080
'20:04.953',-0.195,0.085
'20:04.956',-0.205,0.095
'20:04.958',-0.210,0.080
'20:04.961',-0.210,0.080
'20:04.964',-0.215,0.075
'20:04.967',-0.215,0.045
'20:04.969',-0.220,0.055
'20:04.972',-0.205,0.065
'20:04.975',-0.195,0.075
'20:04.978',-0.205,0.075
'20:04.981',-0.220,0.055
'20:04.983',-0.240,0.060
'20:04.986',-0.250,0.050
'20:04.989',-0.240,0.070
'20:04.992',-0.255,0.085
'20:04.994',-0.260,0.100
'20:04.997',-0.270,0.075
'20:05.000',-0.280,0.070
'20:05.003',-0.290,0.075
'20:05.006',-0.270,0.085
'20:05.008',-0.245,0.095
'20:05.011',-0.215,0.080
'20:05.014',-0.215,0.070
'20:05.017',-0.245,0.060
'20:05.019',-0.250,0.060
'20:05.022',-0.255,0.085
'20:05.025',-0.270,0.105
'20:05.028',-0.270,0.100
'20:05.031',-0.270,0.100
'20:05.033',-0.250,0.090
'20:05.036',-0.250,0.070
'20:05.039',-0.245,0.095
'20:05.042',-0.240,0.095
'20:05.044',-0.230,0.090
'20:05.047',-0.235,0.070
'20:05.050',-0.245,0.045
'20:05.053',-0.240,0.055
'20:05.056',-0.240,0.060
'20:05.058',-0.240,0.075
'20:05.061',-0.220,0.085
'20:05.064',-0.220,0.070
'20:05.067',-0.230,0.060
'20:05.069',-0.225,0.055
'20:05.072',-0.235,0.060
'20:05.075',-0.220,0.075
'20:05.078',-0.210,0.085
'20:05.081',-0.230,0.095
'20:05.083',-0.255,0.095
'20:05.086',-0.245,0.105
'20:05.089',-0.180,0.120
'20:05.092',-0.065,0.115
'20:05.094',0.075,0.070
'20:05.097',0.245,-0.005
'20:05.100',0.395,-0.065
'20:05.103',0.540,-0.115
'20:05.106',0.675,-0.180
'20:05.108',0.755,-0.220
'20:05.111',0.745,-0.280
'20:05.114',0.610,-0.310
'20:05.117',0.455,-0.320
'20:05.119',0.260,-0.305
'20:05.122',-0.035,-0.280
'20:05.125',-0.380,-0.210
'20:05.128',-0.680,-0.195
'20:05.131',-0.890,-0.120
'20:05.133',-0.900,-0.105
'20:05.136',-0.800,-0.065
'20:05.139',-0.675,0.015
'20:05.142',-0.565,0.030
'20:05.144',-0.485,0.040
'20:05.147',-0.405,0.025
'20:05.150',-0.340,0.025
'20:05.153',-0.295,0.010
'20:05.156',-0.260,0.030
'20:05.158',-0.245,0.055
'20:05.161',-0.225,0.060
'20:05.164',-0.240,0.050
'20:05.167',-0.250,0.030
'20:05.169',-0.250,0.040
'20:05.172',-0.230,0.050
'20:05.175',-0.185,0.065
'20:05.178',-0.170,0.055
'20:05.181',-0.190,0.055
'20:05.183',-0.195,0.055
'20:05.186',-0.205,0.050
'20:05.189',-0.190,0.075
'20:05.192',-0.150,0.060
'20:05.194',-0.130,0.055
'20:05.197',-0.130,0.035
'20:05.200',-0.135,0.030
'20:05.203',-0.140,0.030
'20:05.206',-0.130,0.040
'20:05.208',-0.120,0.050
'20:05.211',-0.085,0.055
'20:05.214',-0.075,0.035
'20:05.217',-0.080,0.020
'20:05.219',-0.085,0.015
'20:05.222',-0.065,0.025
'20:05.225',-0.025,0.035
'20:05.228',0.015,0.015
'20:05.231',0.035,0.010
'20:05.233',0.030,0.005
'20:05.236',0.030,0.000
'20:05.239',0.040,0.025
'20:05.242',0.070,0.015
'20:05.244',0.095,0.020
'20:05.247',0.100,0.005
'20:05.250',0.115,-0.010
'20:05.253',0.105,-0.010
'20:05.256',0.105,-0.005
'20:05.258',0.105,0.015
'20:05.261',0.125,-0.010
'20:05.264',0.140,-0.010
'20:05.267',0.150,-0.015
'20:05.269',0.160,-0.020
'20:05.272',0.175,-0.015
'20:05.275',0.190,-0.010
'20:05.278',0.210,-0.005
'20:05.281',0.200,-0.005
'20:05.283',0.200,-0.025
'20:05.286',0.200,-0.010
'20:05.289',0.215,-0.020
'20:05.292',0.230,0.005
'20:05.294',0.225,-0.010
'20:05.297',0.210,-0.010
'20:05.300',0.180,-0.025
'20:05.303',0.160,-0.025
'20:05.306',0.145,-0.005
'20:05.308',0.165,0.030
'20:05.311',0.160,0.015
'20:05.314',0.130,0.000
'20:05.317',0.095,-0.015
'20:05.319',0.045,-0.010
'20:05.322',0.015,0.010
'20:05.325',-0.005,0.030
'20:05.328',-0.010,0.035
'20:05.331',-0.060,0.040
'20:05.333',-0.100,0.030
'20:05.336',-0.135,0.045
'20:05.339',-0.130,0.055
'20:05.342',-0.115,0.055
'20:05.344',-0.125,0.060
'20:05.347',-0.160,0.045
'20:05.350',-0.195,0.045
'20:05.353',-0.220,0.045
'20:05.356',-0.230,0.060
'20:05.358',-0.210,0.070
'20:05.361',-0.200,0.070
'20:05.364',-0.200,0.055
'20:05.367',-0.205,0.040
'20:05.369',-0.225,0.055
'20:05.372',-0.215,0.080
'20:05.375',-0.220,0.090
'20:05.378',-0.205,0.080
'20:05.381',-0.215,0.050
'20:05.383',-0.245,0.040
'20:05.386',-0.260,0.025
'20:05.389',-0.240,0.050
'20:05.392',-0.215,0.075
'20:05.394',-0.210,0.055
'20:05.397',-0.230,0.050
'20:05.400',-0.250,0.040
'20:05.403',-0.260,0.035
'20:05.406',-0.260,0.060
'20:05.408',-0.210,0.065
'20:05.411',-0.195,0.075
'20:05.414',-0.210,0.055
'20:05.417',-0.235,0.040
'20:05.419',-0.250,0.060
'20:05.422',-0.215,0.065
'20:05.425',-0.185,0.085
'20:05.428',-0.170,0.080
'20:05.431',-0.185,0.065
'20:05.433',-0.205,0.055
'20:05.436',-0.230,0.065
'20:05.439',-0.215,0.090
'20:05.442',-0.195,0.100
'20:05.444',-0.185,0.100
'20:05.447',-0.175,0.095
'20:05.450',-0.150,0.075
'20:05.453',-0.165,0.070
'20:05.456',-0.145,0.070
'20:05.458',-0.105,0.085
'20:05.461',-0.100,0.085
'20:05.464',-0.120,0.050
'20:05.467',-0.175,0.035
'20:05.469',-0.200,0.025
'20:05.472',-0.210,0.025
'20:05.475',-0.185,0.040
'20:05.478',-0.170,0.040
'20:05.481',-0.175,0.020
'20:05.483',-0.195,0.010
'20:05.486',-0.190,0.025
'20:05.489',-0.190,0.035
'20:05.492',-0.190,0.055
'20:05.494',-0.175,0.050
'20:05.497',-0.175,0.030
'20:05.500',-0.235,0.030
'20:05.503',-0.285,0.040
'20:05.506',-0.300,0.070
'20:05.508',-0.265,0.065
'20:05.511',-0.245,0.055
'20:05.514',-0.250,0.050
'20:05.517',-0.275,0.020
'20:05.519',-0.290,0.020
'20:05.522',-0.285,0.035
'20:05.525',-0.250,0.070
'20:05.528',-0.225,0.045
'20:05.531',-0.220,0.020
'20:05.533',-0.230,0.020
'20:05.536',-0.240,0.035
'20:05.539',-0.245,0.040
'20:05.542',-0.230,0.040
'20:05.544',-0.225,0.030
'20:05.547',-0.245,0.035
'20:05.550',-0.250,0.015
'20:05.553',-0.270,0.020
'20:05.556',-0.255,0.025
'20:05.558',-0.250,0.055
'20:05.561',-0.225,0.055
'20:05.564',-0.240,0.045
'20:05.567',-0.245,0.020
'20:05.569',-0.255,0.015
'20:05.572',-0.250,0.035
'20:05.575',-0.215,0.040
'20:05.578',-0.195,0.035
'20:05.581',-0.175,0.030
'20:05.583',-0.210,0.020
'20:05.586',-0.260,0.030
'20:05.589',-0.285,0.055
'20:05.592',-0.265,0.055
'20:05.594',-0.240,0.050
'20:05.597',-0.240,0.050
'20:05.600',-0.230,0.055
'20:05.603',-0.165,0.040
'20:05.606',-0.030,0.040
'20:05.608',0.130,0.010
'20:05.611',0.325,-0.060
'20:05.614',0.515,-0.110
'20:05.617',0.655,-0.195
'20:05.619',0.735,-0.260
'20:05.622',0.755,-0.300
'20:05.625',0.705,-0.345
'20:05.628',0.565,-0.345
'20:05.631',0.385,-0.350
'20:05.633',0.110,-0.335
'20:05.636',-0.250,-0.300
'20:05.639',-0.575,-0.215
'20:05.642',-0.810,-0.160
'20:05.644',-0.860,-0.120
'20:05.647',-0.785,-0.095
'20:05.650',-0.675,-0.045
'20:05.653',-0.605,-0.010
'20:05.656',-0.520,-0.005
'20:05.658',-0.420,0.035
'20:05.661',-0.335,0.030
'20:05.664',-0.270,0.010
'20:05.667',-0.250,-0.010
'20:05.669',-0.230,-0.005
'20:05.672',-0.220,0.010
'20:05.675',-0.210,0.015
'20:05.678',-0.205,0.030
'20:05.681',-0.200,0.015
'20:05.683',-0.220,0.030
'20:05.686',-0.235,0.010
'20:05.689',-0.230,0.030
'20:05.692',-0.190,0.055
'20:05.694',-0.160,0.050
'20:05.697',-0.150,0.025
'20:05.700',-0.170,0.000
'20:05.703',-0.190,0.010
'20:05.706',-0.170,0.050
'20:05.708',-0.145,0.045
'20:05.711',-0.115,0.055
'20:05.714',-0.100,0.030
'20:05.717',-0.080,0.015
'20:05.719',-0.080,-0.005
'20:05.722',-0.085,0.020
'20:05.725',-0.075,0.015
'20:05.728',-0.055,0.020
'20:05.731',-0.025,-0.005
'20:05.733',-0.040,-0.020
'20:05.736',-0.025,-0.020
'20:05.739',-0.010,0.000
'20:05.742',0.020,0.005
'20:05.744',0.065,0.000
'20:05.747',0.100,-0.015
'20:05.750',0.120,-0.040
'20:05.753',0.140,-0.045
'20:05.756',0.145,-0.030
'20:05.758',0.135,-0.015
'20:05.761',0.135,-0.010
'20:05.764',0.145,-0.025
'20:05.767',0.155,-0.045
'20:05.769',0.190,-0.050
'20:05.772',0.205,-0.045
'20:05.775',0.210,-0.015
'20:05.778',0.210,-0.010
'20:05.781',0.205,-0.020
'20:05.783',0.195,-0.030
'20:05.786',0.195,-0.040
'20:05.789',0.220,-0.040
'20:05.792',0.225,-0.030
'20:05.794',0.240,-0.025
'20:05.797',0.245,-0.030
'20:05.800',0.235,-0.035
'20:05.803',0.215,-0.045
'20:05.806',0.205,-0.045
'20:05.808',0.200,-0.010
'20:05.811',0.190,0.005
'20:05.814',0.135,-0.025
'20:05.817',0.100,-0.010
'20:05.819',0.065,-0.020
'20:05.822',0.045,-0.005
'20:05.825',0.045,0.030
'20:05.828',0.035,0.045
'20:05.831',0.015,0.020
'20:05.833',-0.025,0.010
'20:05.836',-0.080,0.010
'20:05.839',-0.115,0.040
'20:05.842',-0.120,0.055
'20:05.844',-0.120,0.055
'20:05.847',-0.120,0.030
'20:05.850',-0.130,0.015
'20:05.853',-0.155,0.020
'20:05.856',-0.185,0.035
'20:05.858',-0.195,0.045
'20:05.861',-0.180,0.035
'20:05.864',-0.195,0.030
'20:05.867',-0.215,0.035
'20:05.869',-0.225,0.025
'20:05.872',-0.245,0.060
'20:05.875',-0.230,0.060
'20:05.878',-0.200,0.065
'20:05.881',-0.210,0.040
'20:05.883',-0.240,0.035
'20:05.886',-0.255,0.035
'20:05.889',-0.230,0.040
'20:05.892',-0.195,0.070
'20:05.894',-0.195,0.055
'20:05.897',-0.210,0.055
'20:05.900',-0.225,0.020
'20:05.903',-0.235,0.020
'20:05.906',-0.245,0.030
'20:05.908',-0.205,0.050
'20:05.911',-0.195,0.040
'20:05.914',-0.200,0.030
'20:05.917',-0.215,0.015
'20:05.919',-0.220,0.045
'20:05.922',-0.230,0.075
'20:05.925',-0.225,0.085
'20:05.928',-0.210,0.100
'20:05.931',-0.205,0.090
'20:05.933',-0.210,0.080
'20:05.936',-0.225,0.060
'20:05.939',-0.195,0.050
'20:05.942',-0.180,0.075
'20:05.944',-0.145,0.075
'20:05.947',-0.130,0.085
'20:05.950',-0.135,0.050
'20:05.953',-0.135,0.045
'20:05.956',-0.135,0.065
'20:05.958',-0.140,0.060
'20:05.961',-0.150,0.050
'20:05.964',-0.185,0.045
'20:05.967',-0.215,0.020
'20:05.969',-0.215,0.015
'20:05.972',-0.205,0.010
'20:05.975',-0.170,0.040
'20:05.978',-0.160,0.020
'20:05.981',-0.180,0.000
'20:05.983',-0.220,-0.010
'20:05.986',-0.255,0.010
'20:05.989',-0.260,0.025
'20:05.992',-0.210,0.040
'20:05.994',-0.170,0.040
'20:05.997',-0.195,0.025
'20:06.000',-0.240,0.015
'20:06.003',-0.285,0.030
'20:06.006',-0.300,0.030
'20:06.008',-0.285,0.055
'20:06.011',-0.285,0.070
'20:06.014',-0.280,0.040
'20:06.017',-0.290,0.030
'20:06.019',-0.290,0.035
'20:06.022',-0.275,0.025
'20:06.025',-0.260,0.025
'20:06.028',-0.255,0.025
'20:06.031',-0.265,0.020
'20:06.033',-0.270,0.005
'20:06.036',-0.275,-0.005
'20:06.039',-0.270,0.015
'20:06.042',-0.255,0.030
'20:06.044',-0.245,0.040
'20:06.047',-0.260,0.025
'20:06.050',-0.290,0.020
'20:06.053',-0.310,0.035
'20:06.056',-0.290,0.050
'20:06.058',-0.275,0.045
'20:06.061',-0.280,0.025
'20:06.064',-0.295,0.025
'20:06.067',-0.310,0.005
'20:06.069',-0.330,0.030
'20:06.072',-0.330,0.050
'20:06.075',-0.305,0.040
'20:06.078',-0.285,0.040
'20:06.081',-0.295,0.030
'20:06.083',-0.320,0.010
'20:06.086',-0.325,0.025
'20:06.089',-0.320,0.035
'20:06.092',-0.285,0.050
'20:06.094',-0.275,0.050
'20:06.097',-0.285,0.025
'20:06.100',-0.310,0.005
'20:06.103',-0.340,0.025
'20:06.106',-0.340,0.030
'20:06.108',-0.340,0.060
'20:06.111',-0.305,0.065
'20:06.114',-0.250,0.075
'20:06.117',-0.165,0.045
'20:06.119',-0.025,-0.005
'20:06.122',0.160,-0.020
'20:06.125',0.345,-0.050
'20:06.128',0.510,-0.100
'20:06.131',0.685,-0.170
'20:06.133',0.825,-0.250
'20:06.136',0.900,-0.295
'20:06.139',0.880,-0.355
'20:06.142',0.730,-0.385
'20:06.144',0.540,-0.400
'20:06.147',0.320,-0.395
'20:06.150',0.015,-0.375
'20:06.153',-0.335,-0.320
'20:06.156',-0.665,-0.270
'20:06.158',-0.875,-0.205
'20:06.161',-0.920,-0.160
'20:06.164',-0.865,-0.110
'20:06.167',-0.780,-0.055
'20:06.169',-0.725,-0.020
'20:06.172',-0.655,0.005
'20:06.175',-0.565,0.025
'20:06.178',-0.465,0.035
'20:06.181',-0.390,0.005
'20:06.183',-0.355,-0.015
'20:06.186',-0.330,-0.015
'20:06.189',-0.320,-0.020
'20:06.192',-0.320,0.010
'20:06.194',-0.310,0.015
'20:06.197',-0.295,0.005
'20:06.200',-0.275,0.000
'20:06.203',-0.280,0.005
'20:06.206',-0.265,0.015
'20:06.208',-0.265,0.010
'20:06.211',-0.260,0.015
'20:06.214',-0.275,0.020
'20:06.217',-0.285,0.015
'20:06.219',-0.285,0.035
'20:06.222',-0.255,0.035
'20:06.225',-0.235,0.030
'20:06.228',-0.230,0.040
'20:06.231',-0.210,0.035
'20:06.233',-0.210,0.015
'20:06.236',-0.200,0.005
'20:06.239',-0.195,0.015
'20:06.242',-0.170,0.030
'20:06.244',-0.165,0.020
'20:06.247',-0.145,0.015
'20:06.250',-0.150,-0.005
'20:06.253',-0.130,-0.010
'20:06.256',-0.115,-0.010
'20:06.258',-0.095,-0.005
'20:06.261',-0.055,0.020
'20:06.264',-0.050,-0.005
'20:06.267',-0.045,-0.020
'20:06.269',-0.045,-0.040
'20:06.272',-0.035,-0.020
'20:06.275',-0.015,-0.020
'20:06.278',0.005,-0.010
'20:06.281',0.020,-0.030
'20:06.283',0.005,-0.030
'20:06.286',0.010,-0.030
'20:06.289',0.020,-0.040
'20:06.292',0.070,-0.025
'20:06.294',0.100,-0.020
'20:06.297',0.125,-0.040
'20:06.300',0.125,-0.045
'20:06.303',0.120,-0.075
'20:06.306',0.125,-0.045
'20:06.308',0.125,-0.045
'20:06.311',0.135,-0.045
'20:06.314',0.140,-0.030
'20:06.317',0.140,-0.050
'20:06.319',0.125,-0.060
'20:06.322',0.130,-0.035
'20:06.325',0.130,-0.030
'20:06.328',0.145,-0.030
'20:06.331',0.155,-0.035
'20:06.333',0.155,-0.035
'20:06.336',0.140,-0.050
'20:06.339',0.120,-0.030
'20:06.342',0.100,0.000
'20:06.344',0.070,0.010
'20:06.347',0.025,0.000
'20:06.350',-0.015,-0.010
'20:06.353',-0.030,-0.025
'20:06.356',-0.030,0.000
'20:06.358',-0.060,0.015
'20:06.361',-0.085,0.030
'20:06.364',-0.120,0.020
'20:06.367',-0.145,0.025
'20:06.369',-0.145,0.020
'20:06.372',-0.145,0.015
'20:06.375',-0.155,0.035
'20:06.378',-0.165,0.030
'20:06.381',-0.195,0.020
'20:06.383',-0.230,0.010
'20:06.386',-0.255,0.020
'20:06.389',-0.260,0.040
'20:06.392',-0.250,0.040
'20:06.394',-0.245,0.035
'20:06.397',-0.260,0.030
'20:06.400',-0.305,0.030
'20:06.403',-0.315,0.025
'20:06.406',-0.305,0.040
'20:06.408',-0.290,0.050
'20:06.411',-0.290,0.045
'20:06.414',-0.295,0.025
'20:06.417',-0.295,0.025
'20:06.419',-0.295,0.025
'20:06.422',-0.300,0.045
'20:06.425',-0.310,0.045
'20:06.428',-0.320,0.050
'20:06.431',-0.310,0.035
'20:06.433',-0.315,0.015
'20:06.436',-0.325,0.015
'20:06.439',-0.330,0.035
'20:06.442',-0.315,0.045
'20:06.444',-0.280,0.035
'20:06.447',-0.270,0.035
'20:06.450',-0.270,0.020
'20:06.453',-0.260,0.010
'20:06.456',-0.240,0.030
'20:06.458',-0.245,0.045
'20:06.461',-0.230,0.065
'20:06.464',-0.235,0.050
'20:06.467',-0.260,0.035
'20:06.469',-0.250,0.045
'20:06.472',-0.245,0.050
'20:06.475',-0.225,0.085
'20:06.478',-0.195,0.085
'20:06.481',-0.175,0.060
'20:06.483',-0.180,0.035
'20:06.486',-0.210,0.030
'20:06.489',-0.220,0.030
'20:06.492',-0.235,0.040
'20:06.494',-0.210,0.035
'20:06.497',-0.220,0.020
'20:06.500',-0.230,-0.010
'20:06.503',-0.235,-0.010
'20:06.506',-0.250,0.005
'20:06.508',-0.255,0.030
'20:06.511',-0.265,0.025
'20:06.514',-0.285,0.015
'20:06.517',-0.285,-0.020
'20:06.519',-0.280,0.000
'20:06.522',-0.275,-0.005
'20:06.525',-0.280,0.035
'20:06.528',-0.275,0.040
'20:06.531',-0.275,0.025
'20:06.533',-0.285,-0.005
'20:06.536',-0.295,0.005
'20:06.539',-0.290,0.025
'20:06.542',-0.285,0.030
'20:06.544',-0.275,0.030
'20:06.547',-0.275,0.020
'20:06.550',-0.280,0.000
'20:06.553',-0.290,0.000
'20:06.556',-0.290,0.025
'20:06.558',-0.270,0.035
'20:06.561',-0.265,0.040
'20:06.564',-0.270,0.010
'20:06.567',-0.290,0.005
'20:06.569',-0.300,0.020
'20:06.572',-0.280,0.035
'20:06.575',-0.255,0.025
'20:06.578',-0.240,0.025
'20:06.581',-0.270,0.010
'20:06.583',-0.305,0.005
'20:06.586',-0.305,0.015
'20:06.589',-0.300,0.040
'20:06.592',-0.265,0.030
'20:06.594',-0.240,0.045
'20:06.597',-0.245,0.025
'20:06.600',-0.260,-0.010
'20:06.603',-0.260,-0.010
'20:06.606',-0.265,0.010
'20:06.608',-0.250,0.020
'20:06.611',-0.225,0.025
'20:06.614',-0.240,0.005
'20:06.617',-0.255,0.000
'20:06.619',-0.270,0.010
'20:06.622',-0.280,0.020
'20:06.625',-0.275,0.055
'20:06.628',-0.260,0.065
'20:06.631',-0.230,0.050
'20:06.633',-0.135,0.050
'20:06.636',0.000,0.000
'20:06.639',0.195,-0.040
'20:06.642',0.385,-0.075
'20:06.644',0.570,-0.130
'20:06.647',0.730,-0.215
'20:06.650',0.835,-0.290
'20:06.653',0.835,-0.360
'20:06.656',0.720,-0.405
'20:06.658',0.530,-0.420
'20:06.661',0.365,-0.440
'20:06.664',0.140,-0.415
'20:06.667',-0.225,-0.390
'20:06.669',-0.590,-0.335
'20:06.672',-0.850,-0.250
'20:06.675',-0.905,-0.180
'20:06.678',-0.810,-0.120
'20:06.681',-0.675,-0.065
'20:06.683',-0.600,-0.040
'20:06.686',-0.520,-0.030
'20:06.689',-0.430,-0.020
'20:06.692',-0.345,0.000
'20:06.694',-0.305,0.005
'20:06.697',-0.295,-0.005
'20:06.700',-0.300,-0.020
'20:06.703',-0.275,-0.015
'20:06.706',-0.230,-0.005
'20:06.708',-0.200,0.010
'20:06.711',-0.200,0.005
'20:06.714',-0.220,0.005
'20:06.717',-0.255,-0.010
'20:06.719',-0.260,0.010
'20:06.722',-0.240,0.020
'20:06.725',-0.205,0.030
'20:06.728',-0.205,0.025
'20:06.731',-0.200,0.015
'20:06.733',-0.190,-0.005
'20:06.736',-0.180,-0.015
'20:06.739',-0.160,0.000
'20:06.742',-0.160,0.010
'20:06.744',-0.155,0.000
'20:06.747',-0.135,0.005
'20:06.750',-0.130,-0.020
'20:06.753',-0.130,-0.015
'20:06.756',-0.100,-0.005
'20:06.758',-0.080,0.005
'20:06.761',-0.060,0.010
'20:06.764',-0.050,-0.005
'20:06.767',-0.065,-0.005
'20:06.769',-0.065,-0.040
'20:06.772',-0.035,-0.025
'20:06.775',0.005,-0.020
'20:06.778',0.025,-0.025
'20:06.781',0.040,-0.025
'20:06.783',0.050,-0.050
'20:06.786',0.050,-0.060
'20:06.789',0.050,-0.030
'20:06.792',0.100,-0.025
'20:06.794',0.120,-0.035
'20:06.797',0.145,-0.055
'20:06.800',0.150,-0.075
'20:06.803',0.145,-0.065
'20:06.806',0.150,-0.060
'20:06.808',0.160,-0.045
'20:06.811',0.190,-0.045
'20:06.814',0.195,-0.065
'20:06.817',0.190,-0.075
'20:06.819',0.180,-0.085
'20:06.822',0.175,-0.065
'20:06.825',0.170,-0.045
'20:06.828',0.185,-0.055
'20:06.831',0.205,-0.050
'20:06.833',0.185,-0.075
'20:06.836',0.175,-0.070
'20:06.839',0.175,-0.050
'20:06.842',0.205,-0.035
'20:06.844',0.215,-0.035
'20:06.847',0.185,-0.035
'20:06.850',0.120,-0.055
'20:06.853',0.070,-0.040
'20:06.856',0.035,-0.020
'20:06.858',0.045,0.000
'20:06.861',0.040,0.000
'20:06.864',0.010,0.005
'20:06.867',-0.025,-0.025
'20:06.869',-0.050,-0.035
'20:06.872',-0.065,-0.010
'20:06.875',-0.075,0.010
'20:06.878',-0.070,0.015
'20:06.881',-0.090,-0.005
'20:06.883',-0.140,-0.020
'20:06.886',-0.155,0.015
'20:06.889',-0.185,0.025
'20:06.892',-0.190,0.040
'20:06.894',-0.190,0.050
'20:06.897',-0.205,0.035
'20:06.900',-0.215,0.015
'20:06.903',-0.225,0.020
'20:06.906',-0.205,0.045
'20:06.908',-0.220,0.040
'20:06.911',-0.210,0.035
'20:06.914',-0.205,0.025
'20:06.917',-0.235,0.005
'20:06.919',-0.255,0.000
'20:06.922',-0.265,0.020
'20:06.925',-0.275,0.035
'20:06.928',-0.260,0.040
'20:06.931',-0.260,0.030
'20:06.933',-0.265,0.015
'20:06.936',-0.265,0.010
'20:06.939',-0.265,0.030
'20:06.942',-0.255,0.040
'20:06.944',-0.255,0.050
'20:06.947',-0.265,0.040
'20:06.950',-0.270,0.025
'20:06.953',-0.260,0.015
'20:06.956',-0.250,0.040
'20:06.958',-0.225,0.030
'20:06.961',-0.230,0.030
'20:06.964',-0.225,0.010
'20:06.967',-0.245,0.025
'20:06.969',-0.250,0.040
'20:06.972',-0.235,0.055
'20:06.975',-0.210,0.045
'20:06.978',-0.200,0.075
'20:06.981',-0.210,0.060
'20:06.983',-0.230,0.055
'20:06.986',-0.230,0.045
'20:06.989',-0.200,0.070
'20:06.992',-0.175,0.075
'20:06.994',-0.155,0.075
'20:06.997',-0.170,0.065
'20:07.000',-0.175,0.045
'20:07.003',-0.175,0.035
'20:07.006',-0.150,0.025
'20:07.008',-0.165,0.045
'20:07.011',-0.185,0.030
'20:07.014',-0.230,0.020
'20:07.017',-0.250,0.000
'20:07.019',-0.265,0.005
'20:07.022',-0.255,0.005
'20:07.025',-0.250,0.005
'20:07.028',-0.240,0.000
'20:07.031',-0.240,-0.015
'20:07.033',-0.240,-0.025
'20:07.036',-0.255,-0.010
'20:07.039',-0.260,0.005
'20:07.042',-0.250,0.025
'20:07.044',-0.245,0.030
'20:07.047',-0.255,0.010
'20:07.050',-0.280,-0.015
'20:07.053',-0.315,-0.010
'20:07.056',-0.345,-0.005
'20:07.058',-0.335,0.030
'20:07.061',-0.315,0.025
'20:07.064',-0.285,0.005
'20:07.067',-0.295,-0.005
'20:07.069',-0.305,0.005
'20:07.072',-0.285,0.005
'20:07.075',-0.275,0.025
'20:07.078',-0.260,0.015
'20:07.081',-0.270,0.000
'20:07.083',-0.295,-0.015
'20:07.086',-0.305,-0.010
'20:07.089',-0.305,0.015
'20:07.092',-0.295,0.035
'20:07.094',-0.245,0.015
'20:07.097',-0.250,-0.005
'20:07.100',-0.270,0.005
'20:07.103',-0.305,-0.005
'20:07.106',-0.325,0.020
'20:07.108',-0.325,0.035
'20:07.111',-0.300,0.035
'20:07.114',-0.300,0.020
'20:07.117',-0.300,0.010
'20:07.119',-0.295,0.005
'20:07.122',-0.280,0.020
'20:07.125',-0.270,0.035
'20:07.128',-0.260,0.025
'20:07.131',-0.275,0.005
'20:07.133',-0.280,0.005
'20:07.136',-0.290,0.005
'20:07.139',-0.285,0.005
'20:07.142',-0.295,0.005
'20:07.144',-0.275,0.025
'20:07.147',-0.280,0.025
'20:07.150',-0.290,0.000
'20:07.153',-0.310,0.015
'20:07.156',-0.310,0.025
'20:07.158',-0.290,0.080
'20:07.161',-0.215,0.070
'20:07.164',-0.090,0.030
'20:07.167',0.065,-0.035
'20:07.169',0.220,-0.080
'20:07.172',0.380,-0.115
'20:07.175',0.550,-0.165
'20:07.178',0.715,-0.210
'20:07.181',0.805,-0.290
'20:07.183',0.805,-0.365
'20:07.186',0.700,-0.410
'20:07.189',0.520,-0.440
'20:07.192',0.365,-0.420
'20:07.194',0.215,-0.410
'20:07.197',-0.055,-0.405
'20:07.200',-0.380,-0.365
'20:07.203',-0.695,-0.310
'20:07.206',-0.905,-0.240
'20:07.208',-0.975,-0.185
'20:07.211',-0.895,-0.120
'20:07.214',-0.775,-0.075
'20:07.217',-0.680,-0.050
'20:07.219',-0.620,-0.020
'20:07.222',-0.535,0.000
'20:07.225',-0.445,0.015
'20:07.228',-0.360,0.015
'20:07.231',-0.330,-0.005
'20:07.233',-0.335,-0.010
'20:07.236',-0.340,-0.010
'20:07.239',-0.320,0.005
'20:07.242',-0.280,0.025
'20:07.244',-0.265,0.005
'20:07.247',-0.280,0.005
'20:07.250',-0.290,0.010
'20:07.253',-0.290,0.005
'20:07.256',-0.270,0.010
'20:07.258',-0.235,0.030
'20:07.261',-0.205,0.025
'20:07.264',-0.220,0.000
'20:07.267',-0.245,-0.005
'20:07.269',-0.265,-0.005
'20:07.272',-0.235,0.025
'20:07.275',-0.200,0.030
'20:07.278',-0.170,0.010
'20:07.281',-0.175,0.005
'20:07.283',-0.205,-0.005
'20:07.286',-0.205,0.005
'20:07.289',-0.200,0.005
'20:07.292',-0.170,0.035
'20:07.294',-0.130,0.020
'20:07.297',-0.135,0.000
'20:07.300',-0.125,-0.015
'20:07.303',-0.130,-0.010
'20:07.306',-0.110,0.005
'20:07.308',-0.085,0.015
'20:07.311',-0.060,0.005
'20:07.314',-0.045,-0.005
'20:07.317',-0.040,-0.025
'20:07.319',-0.020,-0.035
'20:07.322',-0.010,-0.020
'20:07.325',-0.010,-0.015
'20:07.328',0.035,-0.015
'20:07.331',0.035,-0.040
'20:07.333',0.055,-0.065
'20:07.336',0.050,-0.045
'20:07.339',0.060,-0.035
'20:07.342',0.085,-0.030
'20:07.344',0.105,-0.030
'20:07.347',0.110,-0.035
'20:07.350',0.110,-0.040
'20:07.353',0.125,-0.060
'20:07.356',0.155,-0.055
'20:07.358',0.180,-0.025
'20:07.361',0.170,-0.040
'20:07.364',0.150,-0.045
'20:07.367',0.140,-0.070
'20:07.369',0.155,-0.065
'20:07.372',0.155,-0.050
'20:07.375',0.150,-0.035
'20:07.378',0.140,-0.040
'20:07.381',0.135,-0.045
'20:07.383',0.130,-0.060
'20:07.386',0.120,-0.050
'20:07.389',0.100,-0.035
'20:07.392',0.105,-0.015
'20:07.394',0.105,-0.010
'20:07.397',0.080,-0.025
'20:07.400',0.050,-0.030
'20:07.403',0.015,-0.010
'20:07.406',-0.010,0.000
'20:07.408',-0.010,0.020
'20:07.411',-0.005,0.015
'20:07.414',-0.025,0.020
'20:07.417',-0.070,0.015
'20:07.419',-0.130,0.005
'20:07.422',-0.150,0.025
'20:07.425',-0.150,0.050
'20:07.428',-0.160,0.045
'20:07.431',-0.180,0.035
'20:07.433',-0.195,0.020
'20:07.436',-0.215,0.035
'20:07.439',-0.220,0.050
'20:07.442',-0.215,0.065
'20:07.444',-0.205,0.050
'20:07.447',-0.240,0.025
'20:07.450',-0.270,0.015
'20:07.453',-0.270,0.015
'20:07.456',-0.270,0.050
'20:07.458',-0.265,0.060
'20:07.461',-0.260,0.055
'20:07.464',-0.275,0.065
'20:07.467',-0.295,0.035
'20:07.469',-0.300,0.050
'20:07.472',-0.285,0.055
'20:07.475',-0.255,0.075
'20:07.478',-0.260,0.060
'20:07.481',-0.250,0.040
'20:07.483',-0.260,0.025
'20:07.486',-0.290,0.030
'20:07.489',-0.275,0.035
'20:07.492',-0.275,0.055
'20:07.494',-0.275,0.055
'20:07.497',-0.270,0.050
'20:07.500',-0.280,0.025
'20:07.503',-0.270,0.055
'20:07.506',-0.285,0.060
'20:07.508',-0.285,0.070
'20:07.511',-0.265,0.065
'20:07.514',-0.275,0.065
'20:07.517',-0.280,0.040
'20:07.519',-0.290,0.060
'20:07.522',-0.285,0.060
'20:07.525',-0.270,0.090
'20:07.528',-0.255,0.095
'20:07.531',-0.240,0.075
'20:07.533',-0.255,0.065
'20:07.536',-0.265,0.055
'20:07.539',-0.275,0.090
'20:07.542',-0.235,0.095
'20:07.544',-0.210,0.105
'20:07.547',-0.210,0.090
'20:07.550',-0.220,0.075
'20:07.553',-0.210,0.065
'20:07.556',-0.180,0.075
'20:07.558',-0.160,0.095
'20:07.561',-0.170,0.075
'20:07.564',-0.210,0.060
'20:07.567',-0.250,0.035
'20:07.569',-0.280,0.030
'20:07.572',-0.255,0.035
'20:07.575',-0.245,0.050
'20:07.578',-0.245,0.030
'20:07.581',-0.245,0.015
'20:07.583',-0.275,0.010
'20:07.586',-0.285,0.010
'20:07.589',-0.270,0.020
'20:07.592',-0.270,0.030
'20:07.594',-0.245,0.035
'20:07.597',-0.265,0.035
'20:07.600',-0.270,0.035
'20:07.603',-0.300,0.020
'20:07.606',-0.305,0.045
'20:07.608',-0.295,0.055
'20:07.611',-0.280,0.050
'20:07.614',-0.280,0.040
'20:07.617',-0.285,0.030
'20:07.619',-0.310,0.025
'20:07.622',-0.330,0.040
'20:07.625',-0.310,0.050
'20:07.628',-0.305,0.035
'20:07.631',-0.315,0.040
'20:07.633',-0.310,0.030
'20:07.636',-0.320,0.045
'20:07.639',-0.305,0.050
'20:07.642',-0.285,0.065
'20:07.644',-0.270,0.075
'20:07.647',-0.275,0.050
'20:07.650',-0.295,0.035
'20:07.653',-0.315,0.040
'20:07.656',-0.310,0.060
'20:07.658',-0.315,0.075
'20:07.661',-0.285,0.070
'20:07.664',-0.290,0.055
'20:07.667',-0.295,0.035
'20:07.669',-0.320,0.035
'20:07.672',-0.315,0.055
'20:07.675',-0.310,0.065
'20:07.678',-0.280,0.055
'20:07.681',-0.295,0.050
'20:07.683',-0.305,0.030
'20:07.686',-0.325,0.035
'20:07.689',-0.310,0.050
'20:07.692',-0.290,0.060
'20:07.694',-0.285,0.065
'20:07.697',-0.270,0.040
'20:07.700',-0.280,0.040
'20:07.703',-0.300,0.040
'20:07.706',-0.290,0.050
'20:07.708',-0.280,0.065
'20:07.711',-0.275,0.055
'20:07.714',-0.295,0.040
'20:07.717',-0.325,0.050
'20:07.719',-0.340,0.075
'20:07.722',-0.315,0.110
'20:07.725',-0.255,0.120
'20:07.728',-0.160,0.105
'20:07.731',-0.065,0.070
'20:07.733',0.030,0.010
'20:07.736',0.135,-0.030
'20:07.739',0.285,-0.050
'20:07.742',0.445,-0.095
'20:07.744',0.605,-0.145
'20:07.747',0.690,-0.230
'20:07.750',0.705,-0.295
'20:07.753',0.625,-0.345
'20:07.756',0.470,-0.360
'20:07.758',0.330,-0.345
'20:07.761',0.195,-0.340
'20:07.764',-0.075,-0.320
'20:07.767',-0.405,-0.300
'20:07.769',-0.700,-0.245
'20:07.772',-0.910,-0.155
'20:07.775',-0.955,-0.110
'20:07.778',-0.860,-0.055
'20:07.781',-0.750,-0.015
'20:07.783',-0.660,0.020
'20:07.786',-0.590,0.035
'20:07.789',-0.520,0.045
'20:07.792',-0.440,0.055
'20:07.794',-0.355,0.045
'20:07.797',-0.335,0.035
'20:07.800',-0.325,0.030
'20:07.803',-0.325,0.055
'20:07.806',-0.305,0.045
'20:07.808',-0.275,0.065
'20:07.811',-0.245,0.060
'20:07.814',-0.245,0.070
'20:07.817',-0.265,0.045
'20:07.819',-0.255,0.045
'20:07.822',-0.240,0.060
'20:07.825',-0.215,0.060
'20:07.828',-0.215,0.060
'20:07.831',-0.210,0.035
'20:07.833',-0.230,0.030
'20:07.836',-0.235,0.020
'20:07.839',-0.225,0.050
'20:07.842',-0.220,0.065
'20:07.844',-0.195,0.055
'20:07.847',-0.205,0.055
'20:07.850',-0.185,0.040
'20:07.853',-0.200,0.025
'20:07.856',-0.180,0.050
'20:07.858',-0.150,0.055
'20:07.861',-0.125,0.050
'20:07.864',-0.130,0.030
'20:07.867',-0.115,0.025
'20:07.869',-0.125,0.025
'20:07.872',-0.115,0.025
'20:07.875',-0.105,0.045
'20:07.878',-0.075,0.030
'20:07.881',-0.070,0.030
'20:07.883',-0.080,-0.005
'20:07.886',-0.085,0.005
'20:07.889',-0.065,0.020
'20:07.892',-0.035,0.025
'20:07.894',-0.005,0.020
'20:07.897',0.020,0.015
'20:07.900',0.030,-0.005
'20:07.903',0.045,-0.015
'20:07.906',0.070,-0.015
'20:07.908',0.110,0.000
'20:07.911',0.110,-0.010
'20:07.914',0.110,-0.005
'20:07.917',0.085,-0.035
'20:07.919',0.080,-0.030
'20:07.922',0.080,-0.005
'20:07.925',0.115,-0.005
'20:07.928',0.130,0.010
'20:07.931',0.135,-0.025
'20:07.933',0.140,-0.025
'20:07.936',0.135,-0.020
'20:07.939',0.135,0.000
'20:07.942',0.150,0.015
'20:07.944',0.175,0.010
'20:07.947',0.180,-0.010
'20:07.950',0.185,-0.025
'20:07.953',0.170,-0.030
'20:07.956',0.160,-0.020
'20:07.958',0.175,-0.005
'20:07.961',0.165,0.010
'20:07.964',0.135,0.000
'20:07.967',0.100,-0.025
'20:07.969',0.075,0.005
'20:07.972',0.065,0.010
'20:07.975',0.055,0.040
'20:07.978',0.035,0.025
'20:07.981',0.005,0.030
'20:07.983',-0.015,0.015
'20:07.986',-0.050,0.030
'20:07.989',-0.055,0.050
'20:07.992',-0.055,0.065
'20:07.994',-0.075,0.065
'20:07.997',-0.080,0.055
'20:08.000',-0.105,0.050
'20:08.003',-0.140,0.050
'20:08.006',-0.160,0.070
'20:08.008',-0.170,0.080
'20:08.011',-0.190,0.085
'20:08.014',-0.210,0.080
'20:08.017',-0.235,0.070
'20:08.019',-0.265,0.075
'20:08.022',-0.250,0.100
'20:08.025',-0.235,0.110
'20:08.028',-0.230,0.095
'20:08.031',-0.225,0.080
'20:08.033',-0.235,0.075
'20:08.036',-0.240,0.075
'20:08.039',-0.245,0.090
'20:08.042',-0.245,0.100
'20:08.044',-0.235,0.100
'20:08.047',-0.245,0.085
'20:08.050',-0.275,0.070
'20:08.053',-0.280,0.065
'20:08.056',-0.275,0.100
'20:08.058',-0.270,0.120
'20:08.061',-0.245,0.110
'20:08.064',-0.255,0.100
'20:08.067',-0.265,0.090
'20:08.069',-0.265,0.095
'20:08.072',-0.260,0.110
'20:08.075',-0.240,0.120
'20:08.078',-0.225,0.105
'20:08.081',-0.240,0.090
'20:08.083',-0.240,0.070
'20:08.086',-0.260,0.060
'20:08.089',-0.270,0.075
'20:08.092',-0.270,0.095
'20:08.094',-0.270,0.105
'20:08.097',-0.255,0.095
'20:08.100',-0.255,0.080
'20:08.103',-0.270,0.085
'20:08.106',-0.250,0.105
'20:08.108',-0.230,0.100
'20:08.111',-0.215,0.115
'20:08.114',-0.215,0.125
'20:08.117',-0.235,0.105
'20:08.119',-0.230,0.105
'20:08.122',-0.235,0.115
'20:08.125',-0.220,0.125
'20:08.128',-0.200,0.135
'20:08.131',-0.205,0.130
'20:08.133',-0.200,0.105
'20:08.136',-0.195,0.120
'20:08.139',-0.180,0.120
'20:08.142',-0.165,0.135
'20:08.144',-0.160,0.130
'20:08.147',-0.150,0.140
'20:08.150',-0.145,0.110
'20:08.153',-0.175,0.085
'20:08.156',-0.185,0.085
'20:08.158',-0.190,0.095
'20:08.161',-0.190,0.095
'20:08.164',-0.195,0.080
'20:08.167',-0.210,0.055
'20:08.169',-0.235,0.055
'20:08.172',-0.235,0.060
'20:08.175',-0.240,0.070
'20:08.178',-0.230,0.080
'20:08.181',-0.240,0.075
'20:08.183',-0.260,0.070
'20:08.186',-0.275,0.065
'20:08.189',-0.250,0.080
'20:08.192',-0.250,0.100
'20:08.194',-0.245,0.110
'20:08.197',-0.250,0.100
'20:08.200',-0.275,0.080
'20:08.203',-0.290,0.105
'20:08.206',-0.290,0.095
'20:08.208',-0.270,0.110
'20:08.211',-0.270,0.105
'20:08.214',-0.280,0.095
'20:08.217',-0.280,0.065
'20:08.219',-0.290,0.065
'20:08.222',-0.290,0.085
'20:08.225',-0.275,0.095
'20:08.228',-0.270,0.085
'20:08.231',-0.275,0.075
'20:08.233',-0.270,0.065
'20:08.236',-0.290,0.070
'20:08.239',-0.290,0.090
'20:08.242',-0.270,0.120
'20:08.244',-0.255,0.115
'20:08.247',-0.245,0.095
'20:08.250',-0.255,0.080
'20:08.253',-0.270,0.070
'20:08.256',-0.270,0.080
'20:08.258',-0.265,0.115
'20:08.261',-0.250,0.115
'20:08.264',-0.245,0.090
'20:08.267',-0.270,0.095
'20:08.269',-0.275,0.075
'20:08.272',-0.270,0.090
'20:08.275',-0.255,0.095
'20:08.278',-0.245,0.100
'20:08.281',-0.270,0.095
'20:08.283',-0.285,0.075
'20:08.286',-0.290,0.065
'20:08.289',-0.280,0.080
'20:08.292',-0.285,0.095
'20:08.294',-0.250,0.105
'20:08.297',-0.255,0.090
'20:08.300',-0.275,0.080
'20:08.303',-0.265,0.080
'20:08.306',-0.265,0.085
'20:08.308',-0.250,0.115
'20:08.311',-0.250,0.105
'20:08.314',-0.270,0.105
'20:08.317',-0.280,0.100
'20:08.319',-0.280,0.115
'20:08.322',-0.240,0.140
'20:08.325',-0.160,0.155
'20:08.328',-0.040,0.105
'20:08.331',0.060,0.060
'20:08.333',0.170,0.010
'20:08.336',0.280,-0.025
'20:08.339',0.415,-0.060
'20:08.342',0.540,-0.090
'20:08.344',0.650,-0.125
'20:08.347',0.710,-0.190
'20:08.350',0.705,-0.260
'20:08.353',0.640,-0.295
'20:08.356',0.510,-0.300
'20:08.358',0.380,-0.270
'20:08.361',0.230,-0.255
'20:08.364',-0.050,-0.240
'20:08.367',-0.400,-0.200
'20:08.369',-0.705,-0.160
'20:08.372',-0.905,-0.110
'20:08.375',-0.945,-0.050
'20:08.378',-0.835,-0.010
'20:08.381',-0.710,0.020
'20:08.383',-0.625,0.025
'20:08.386',-0.570,0.055
'20:08.389',-0.510,0.070
'20:08.392',-0.430,0.095
'20:08.394',-0.355,0.105
'20:08.397',-0.325,0.090
'20:08.400',-0.295,0.065
'20:08.403',-0.300,0.060
'20:08.406',-0.280,0.085
'20:08.408',-0.260,0.100
'20:08.411',-0.225,0.085
'20:08.414',-0.245,0.075
'20:08.417',-0.250,0.070
'20:08.419',-0.255,0.075
'20:08.422',-0.250,0.100
'20:08.425',-0.225,0.120
'20:08.428',-0.205,0.115
'20:08.431',-0.200,0.095
'20:08.433',-0.210,0.075
'20:08.436',-0.210,0.070
'20:08.439',-0.190,0.095
'20:08.442',-0.170,0.110
'20:08.444',-0.150,0.095
'20:08.447',-0.155,0.100
'20:08.450',-0.160,0.085
'20:08.453',-0.170,0.070
'20:08.456',-0.165,0.085
'20:08.458',-0.145,0.095
'20:08.461',-0.125,0.100
'20:08.464',-0.105,0.090
'20:08.467',-0.120,0.075
'20:08.469',-0.120,0.070
'20:08.472',-0.090,0.080
'20:08.475',-0.075,0.080
'20:08.478',-0.060,0.085
'20:08.481',-0.040,0.075
'20:08.483',-0.040,0.060
'20:08.486',-0.040,0.055
'20:08.489',-0.025,0.070
'20:08.492',0.005,0.100
'20:08.494',0.005,0.070
'20:08.497',0.020,0.060
'20:08.500',0.025,0.040
'20:08.503',0.010,0.040
'20:08.506',0.050,0.045
'20:08.508',0.070,0.050
'20:08.511',0.100,0.050
'20:08.514',0.115,0.045
'20:08.517',0.115,0.020
'20:08.519',0.120,0.030
'20:08.522',0.130,0.035
'20:08.525',0.140,0.055
'20:08.528',0.160,0.055
'20:08.531',0.155,0.040
'20:08.533',0.170,0.025
'20:08.536',0.175,0.015
'20:08.539',0.180,0.035
'20:08.542',0.200,0.035
'20:08.544',0.210,0.045
'20:08.547',0.205,0.035
'20:08.550',0.180,0.010
'20:08.553',0.175,0.020
'20:08.556',0.180,0.040
'20:08.558',0.190,0.060
'20:08.561',0.200,0.045
'20:08.564',0.180,0.040
'20:08.567',0.160,0.025
'20:08.569',0.150,0.040
'20:08.572',0.130,0.050
'20:08.575',0.120,0.090
'20:08.578',0.125,0.070
'20:08.581',0.085,0.065
'20:08.583',0.050,0.065
'20:08.586',0.000,0.060
'20:08.589',-0.020,0.085
'20:08.592',-0.025,0.100
'20:08.594',-0.040,0.110
'20:08.597',-0.065,0.070
'20:08.600',-0.095,0.090
'20:08.603',-0.130,0.090
'20:08.606',-0.135,0.110
'20:08.608',-0.140,0.120
'20:08.611',-0.150,0.130
'20:08.614',-0.170,0.125
'20:08.617',-0.190,0.095
'20:08.619',-0.215,0.085
'20:08.622',-0.230,0.100
'20:08.625',-0.215,0.110
'20:08.628',-0.200,0.125
'20:08.631',-0.220,0.110
'20:08.633',-0.235,0.100
'20:08.636',-0.265,0.100
'20:08.639',-0.270,0.115
'20:08.642',-0.250,0.125
'20:08.644',-0.230,0.120
'20:08.647',-0.235,0.090
'20:08.650',-0.245,0.090
'20:08.653',-0.255,0.105
'20:08.656',-0.265,0.110
'20:08.658',-0.240,0.120
'20:08.661',-0.225,0.115
'20:08.664',-0.235,0.110
'20:08.667',-0.250,0.085
'20:08.669',-0.260,0.090
'20:08.672',-0.250,0.120
'20:08.675',-0.245,0.125
'20:08.678',-0.240,0.125
'20:08.681',-0.245,0.110
'20:08.683',-0.260,0.110
'20:08.686',-0.265,0.110
'20:08.689',-0.255,0.120
'20:08.692',-0.240,0.120
'20:08.694',-0.240,0.135
'20:08.697',-0.245,0.120
'20:08.700',-0.250,0.110
'20:08.703',-0.250,0.115
'20:08.706',-0.240,0.130
'20:08.708',-0.205,0.145
'20:08.711',-0.175,0.170
'20:08.714',-0.185,0.145
'20:08.717',-0.205,0.130
'20:08.719',-0.195,0.120
'20:08.722',-0.200,0.135
'20:08.725',-0.190,0.160
'20:08.728',-0.175,0.170
'20:08.731',-0.155,0.160
'20:08.733',-0.160,0.130
'20:08.736',-0.155,0.135
'20:08.739',-0.165,0.135
'20:08.742',-0.155,0.140
'20:08.744',-0.155,0.135
'20:08.747',-0.165,0.115
'20:08.750',-0.185,0.090
'20:08.753',-0.215,0.090
'20:08.756',-0.205,0.110
'20:08.758',-0.205,0.110
'20:08.761',-0.210,0.115
'20:08.764',-0.225,0.100
'20:08.767',-0.245,0.080
'20:08.769',-0.250,0.060
'20:08.772',-0.245,0.090
'20:08.775',-0.225,0.105
'20:08.778',-0.200,0.095
'20:08.781',-0.205,0.095
'20:08.783',-0.245,0.090
'20:08.786',-0.280,0.100
'20:08.789',-0.290,0.100
'20:08.792',-0.270,0.120
'20:08.794',-0.245,0.115
'20:08.797',-0.250,0.095
'20:08.800',-0.250,0.075
'20:08.803',-0.265,0.085
'20:08.806',-0.270,0.110
'20:08.808',-0.260,0.105
'20:08.811',-0.260,0.130
'20:08.814',-0.250,0.095
'20:08.817',-0.275,0.100
'20:08.819',-0.275,0.095
'20:08.822',-0.265,0.115
'20:08.825',-0.270,0.125
'20:08.828',-0.255,0.110
'20:08.831',-0.260,0.105
'20:08.833',-0.290,0.090
'20:08.836',-0.285,0.095
'20:08.839',-0.290,0.110
'20:08.842',-0.275,0.125
'20:08.844',-0.260,0.135
'20:08.847',-0.265,0.115
'20:08.850',-0.275,0.115
'20:08.853',-0.280,0.095
'20:08.856',-0.270,0.105
'20:08.858',-0.265,0.135
'20:08.861',-0.245,0.135
'20:08.864',-0.260,0.125
'20:08.867',-0.265,0.105
'20:08.869',-0.275,0.090
'20:08.872',-0.290,0.100
'20:08.875',-0.255,0.120
'20:08.878',-0.230,0.120
'20:08.881',-0.240,0.105
'20:08.883',-0.265,0.090
'20:08.886',-0.290,0.105
'20:08.889',-0.280,0.110
'20:08.892',-0.265,0.155
'20:08.894',-0.255,0.160
'20:08.897',-0.265,0.160
'20:08.900',-0.280,0.160
'20:08.903',-0.255,0.165
'20:08.906',-0.195,0.170
'20:08.908',-0.105,0.160
'20:08.911',0.025,0.125
'20:08.914',0.125,0.065
'20:08.917',0.230,0.010
'20:08.919',0.355,-0.050
'20:08.922',0.495,-0.070
'20:08.925',0.610,-0.120
'20:08.928',0.675,-0.165
'20:08.931',0.695,-0.215
'20:08.933',0.615,-0.255
'20:08.936',0.485,-0.255
'20:08.939',0.370,-0.225
'20:08.942',0.230,-0.205
'20:08.944',-0.015,-0.190
'20:08.947',-0.320,-0.150
'20:08.950',-0.600,-0.125
'20:08.953',-0.815,-0.095
'20:08.956',-0.930,-0.030
'20:08.958',-0.895,0.000
'20:08.961',-0.760,0.035
'20:08.964',-0.665,0.080
'20:08.967',-0.610,0.080
'20:08.969',-0.545,0.105
'20:08.972',-0.440,0.110
'20:08.975',-0.350,0.120
'20:08.978',-0.285,0.110
'20:08.981',-0.270,0.095
'20:08.983',-0.260,0.095
'20:08.986',-0.270,0.090
'20:08.989',-0.250,0.105
'20:08.992',-0.235,0.125
'20:08.994',-0.215,0.130
'20:08.997',-0.220,0.120
'20:09.000',-0.225,0.110
'20:09.003',-0.215,0.110
'20:09.006',-0.205,0.125
'20:09.008',-0.190,0.135
'20:09.011',-0.175,0.115
'20:09.014',-0.170,0.110
'20:09.017',-0.190,0.105
'20:09.019',-0.200,0.120
'20:09.022',-0.185,0.125
'20:09.025',-0.160,0.135
'20:09.028',-0.140,0.125
'20:09.031',-0.140,0.100
'20:09.033',-0.135,0.080
'20:09.036',-0.135,0.090
'20:09.039',-0.120,0.095
'20:09.042',-0.100,0.120
'20:09.044',-0.085,0.120
'20:09.047',-0.065,0.100
'20:09.050',-0.065,0.100
'20:09.053',-0.065,0.090
'20:09.056',-0.050,0.105
'20:09.058',-0.025,0.100
'20:09.061',-0.005,0.100
'20:09.064',0.020,0.090
'20:09.067',0.025,0.090
'20:09.069',0.030,0.070
'20:09.072',0.060,0.080
'20:09.075',0.075,0.090
'20:09.078',0.095,0.095
'20:09.081',0.100,0.075
'20:09.083',0.090,0.060
'20:09.086',0.095,0.065
'20:09.089',0.115,0.075
'20:09.092',0.135,0.080
'20:09.094',0.155,0.085
'20:09.097',0.175,0.065
'20:09.100',0.170,0.050
'20:09.103',0.175,0.050
'20:09.106',0.180,0.065
'20:09.108',0.195,0.070
'20:09.111',0.210,0.075
'20:09.114',0.215,0.055
'20:09.117',0.205,0.050
'20:09.119',0.190,0.055
'20:09.122',0.190,0.065
'20:09.125',0.210,0.085
'20:09.128',0.220,0.090
'20:09.131',0.220,0.080
'20:09.133',0.195,0.065
'20:09.136',0.170,0.055
'20:09.139',0.145,0.085
'20:09.142',0.145,0.105
'20:09.144',0.135,0.105
'20:09.147',0.120,0.100
'20:09.150',0.085,0.105
'20:09.153',0.065,0.090
'20:09.156',0.045,0.110
'20:09.158',0.045,0.135
'20:09.161',0.035,0.135
'20:09.164',0.000,0.135
'20:09.167',-0.040,0.130
'20:09.169',-0.075,0.120
'20:09.172',-0.090,0.130
'20:09.175',-0.090,0.130
'20:09.178',-0.100,0.130
'20:09.181',-0.115,0.130
'20:09.183',-0.140,0.115
'20:09.186',-0.165,0.125
'20:09.189',-0.175,0.140
'20:09.192',-0.170,0.165
'20:09.194',-0.155,0.165
'20:09.197',-0.160,0.145
'20:09.200',-0.180,0.125
'20:09.203',-0.205,0.130
'20:09.206',-0.195,0.140
'20:09.208',-0.190,0.165
'20:09.211',-0.190,0.150
'20:09.214',-0.200,0.145
'20:09.217',-0.215,0.130
'20:09.219',-0.235,0.135
'20:09.222',-0.220,0.145
'20:09.225',-0.220,0.170
'20:09.228',-0.210,0.165
'20:09.231',-0.205,0.160
'20:09.233',-0.220,0.145
'20:09.236',-0.225,0.120
'20:09.239',-0.225,0.150
'20:09.242',-0.210,0.150
'20:09.244',-0.205,0.150
'20:09.247',-0.195,0.150
'20:09.250',-0.220,0.135
'20:09.253',-0.230,0.125
'20:09.256',-0.225,0.150
'20:09.258',-0.215,0.155
'20:09.261',-0.205,0.170
'20:09.264',-0.215,0.150
'20:09.267',-0.215,0.160
'20:09.269',-0.225,0.160
'20:09.272',-0.215,0.170
'20:09.275',-0.200,0.185
'20:09.278',-0.170,0.185
'20:09.281',-0.170,0.185
'20:09.283',-0.175,0.180
'20:09.286',-0.155,0.185
'20:09.289',-0.140,0.195
'20:09.292',-0.115,0.210
'20:09.294',-0.080,0.215
'20:09.297',-0.080,0.220
'20:09.300',-0.070,0.205
'20:09.303',-0.035,0.230
'20:09.306',0.010,0.240
'20:09.308',0.070,0.260
'20:09.311',0.130,0.260
'20:09.314',0.150,0.260
'20:09.317',0.165,0.245
'20:09.319',0.190,0.240
'20:09.322',0.275,0.250
'20:09.325',0.390,0.250
'20:09.328',0.520,0.255
'20:09.331',0.640,0.240
'20:09.333',0.750,0.215
'20:09.336',0.915,0.200
'20:09.339',1.105,0.210
'20:09.342',1.290,0.195
'20:09.344',1.485,0.180
'20:09.347',1.640,0.150
'20:09.350',1.790,0.120
'20:09.353',1.925,0.130
'20:09.356',2.035,0.140
'20:09.358',2.130,0.160
'20:09.361',2.185,0.165
'20:09.364',2.215,0.150
'20:09.367',2.215,0.135
'20:09.369',2.175,0.145
'20:09.372',2.070,0.165
'20:09.375',1.905,0.220
'20:09.378',1.650,0.230
'20:09.381',1.130,0.260
'20:09.383',0.510,0.320
'20:09.386',0.165,0.375
'20:09.389',0.100,0.415
'20:09.392',0.015,0.430
'20:09.394',-0.215,0.475
'20:09.397',-0.475,0.505
'20:09.400',-0.660,0.550
'20:09.403',-0.745,0.590
'20:09.406',-0.785,0.605
'20:09.408',-0.810,0.640
'20:09.411',-0.825,0.635
'20:09.414',-0.835,0.610
'20:09.417',-0.840,0.595
'20:09.419',-0.850,0.575
'20:09.422',-0.850,0.525
'20:09.425',-0.830,0.495
'20:09.428',-0.785,0.435
'20:09.431',-0.755,0.350
'20:09.433',-0.725,0.270
'20:09.436',-0.690,0.190
'20:09.439',-0.645,0.155
'20:09.442',-0.620,0.130
'20:09.444',-0.610,0.095
'20:09.447',-0.605,0.050
'20:09.450',-0.600,0.010
'20:09.453',-0.610,-0.005
'20:09.456',-0.600,-0.005
'20:09.458',-0.600,-0.010
'20:09.461',-0.585,-0.005
'20:09.464',-0.570,-0.030
'20:09.467',-0.590,-0.045
'20:09.469',-0.610,-0.055
'20:09.472',-0.605,-0.050
'20:09.475',-0.580,-0.045
'20:09.478',-0.575,-0.045
'20:09.481',-0.575,-0.070
'20:09.483',-0.580,-0.080
'20:09.486',-0.585,-0.080
'20:09.489',-0.580,-0.075
'20:09.492',-0.565,-0.090
'20:09.494',-0.545,-0.090
'20:09.497',-0.540,-0.120
'20:09.500',-0.550,-0.145
'20:09.503',-0.560,-0.155
'20:09.506',-0.545,-0.150
'20:09.508',-0.535,-0.130
'20:09.511',-0.525,-0.135
'20:09.514',-0.525,-0.160
'20:09.517',-0.535,-0.160
'20:09.519',-0.540,-0.185
'20:09.522',-0.525,-0.165
'20:09.525',-0.510,-0.155
'20:09.528',-0.485,-0.170
'20:09.531',-0.485,-0.175
'20:09.533',-0.500,-0.200
'20:09.536',-0.510,-0.210
'20:09.539',-0.510,-0.190
'20:09.542',-0.505,-0.175
'20:09.544',-0.500,-0.165
'20:09.547',-0.490,-0.185
'20:09.550',-0.480,-0.200
'20:09.553',-0.500,-0.200
'20:09.556',-0.490,-0.180
'20:09.558',-0.475,-0.170
'20:09.561',-0.460,-0.165
'20:09.564',-0.460,-0.180
'20:09.567',-0.455,-0.175
'20:09.569',-0.465,-0.165
'20:09.572',-0.460,-0.155
'20:09.575',-0.420,-0.135
'20:09.578',-0.385,-0.125
'20:09.581',-0.390,-0.135
'20:09.583',-0.390,-0.145
'20:09.586',-0.395,-0.135
'20:09.589',-0.375,-0.100
'20:09.592',-0.355,-0.070
'20:09.594',-0.315,-0.065
'20:09.597',-0.320,-0.065
'20:09.600',-0.315,-0.075
'20:09.603',-0.320,-0.050
'20:09.606',-0.320,-0.025
'20:09.608',-0.300,-0.005
'20:09.611',-0.255,-0.005
'20:09.614',-0.270,-0.005
'20:09.617',-0.280,-0.015
'20:09.619',-0.285,0.010
'20:09.622',-0.290,0.035
'20:09.625',-0.300,0.050
'20:09.628',-0.275,0.075
'20:09.631',-0.275,0.090
'20:09.633',-0.305,0.085
'20:09.636',-0.305,0.080
'20:09.639',-0.320,0.110
'20:09.642',-0.300,0.130
'20:09.644',-0.305,0.135
'20:09.647',-0.310,0.145
'20:09.650',-0.335,0.115
'20:09.653',-0.340,0.140
'20:09.656',-0.335,0.140
'20:09.658',-0.325,0.150
'20:09.661',-0.325,0.160
'20:09.664',-0.330,0.155
'20:09.667',-0.335,0.130
'20:09.669',-0.345,0.140
'20:09.672',-0.340,0.160
'20:09.675',-0.325,0.155
'20:09.678',-0.300,0.175
'20:09.681',-0.305,0.170
'20:09.683',-0.325,0.135
'20:09.686',-0.330,0.145
'20:09.689',-0.330,0.165
'20:09.692',-0.315,0.160
'20:09.694',-0.300,0.160
'20:09.697',-0.320,0.160
'20:09.700',-0.330,0.155
'20:09.703',-0.330,0.140
'20:09.706',-0.325,0.150
'20:09.708',-0.310,0.175
'20:09.711',-0.290,0.160
'20:09.714',-0.305,0.150
'20:09.717',-0.310,0.130
'20:09.719',-0.315,0.130
'20:09.722',-0.315,0.160
'20:09.725',-0.295,0.170
'20:09.728',-0.300,0.165
'20:09.731',-0.305,0.160
'20:09.733',-0.315,0.145
'20:09.736',-0.320,0.140
'20:09.739',-0.320,0.165
'20:09.742',-0.310,0.175
'20:09.744',-0.290,0.185
'20:09.747',-0.295,0.165
'20:09.750',-0.290,0.130
'20:09.753',-0.305,0.140
'20:09.756',-0.310,0.150
'20:09.758',-0.300,0.150
'20:09.761',-0.285,0.155
'20:09.764',-0.300,0.145
'20:09.767',-0.315,0.135
'20:09.769',-0.325,0.135
'20:09.772',-0.330,0.155
'20:09.775',-0.320,0.175
'20:09.778',-0.290,0.175
'20:09.781',-0.295,0.165
'20:09.783',-0.315,0.150
'20:09.786',-0.310,0.155
'20:09.789',-0.300,0.160
'20:09.792',-0.305,0.180
'20:09.794',-0.295,0.175
'20:09.797',-0.305,0.165
'20:09.800',-0.305,0.140
'20:09.803',-0.325,0.135
'20:09.806',-0.310,0.160
'20:09.808',-0.305,0.175
'20:09.811',-0.280,0.170
'20:09.814',-0.300,0.165
'20:09.817',-0.315,0.145
'20:09.819',-0.320,0.155
'20:09.822',-0.315,0.170
'20:09.825',-0.305,0.190
'20:09.828',-0.295,0.180
'20:09.831',-0.290,0.165
'20:09.833',-0.300,0.155
'20:09.836',-0.315,0.140
'20:09.839',-0.305,0.165
'20:09.842',-0.290,0.195
'20:09.844',-0.260,0.200
'20:09.847',-0.275,0.180
'20:09.850',-0.285,0.170
'20:09.853',-0.280,0.175
'20:09.856',-0.270,0.195
'20:09.858',-0.250,0.210
'20:09.861',-0.225,0.225
'20:09.864',-0.205,0.205
'20:09.867',-0.210,0.195
'20:09.869',-0.215,0.190
'20:09.872',-0.200,0.200
'20:09.875',-0.200,0.190
'20:09.878',-0.195,0.165
'20:09.881',-0.230,0.140
'20:09.883',-0.255,0.140
'20:09.886',-0.265,0.125
'20:09.889',-0.270,0.140
'20:09.892',-0.265,0.135
'20:09.894',-0.260,0.140
'20:09.897',-0.275,0.125
'20:09.900',-0.295,0.115
'20:09.903',-0.290,0.130
'20:09.906',-0.305,0.125
'20:09.908',-0.270,0.165
'20:09.911',-0.260,0.160
'20:09.914',-0.280,0.155
'20:09.917',-0.310,0.145
'20:09.919',-0.340,0.125
'20:09.922',-0.330,0.130
'20:09.925',-0.315,0.155
'20:09.928',-0.305,0.150
'20:09.931',-0.315,0.145
'20:09.933',-0.340,0.145
'20:09.936',-0.345,0.125
'20:09.939',-0.345,0.155
'20:09.942',-0.330,0.160
'20:09.944',-0.325,0.170
'20:09.947',-0.310,0.165
'20:09.950',-0.320,0.145
'20:09.953',-0.330,0.145
'20:09.956',-0.340,0.170
'20:09.958',-0.330,0.180
'20:09.961',-0.315,0.170
'20:09.964',-0.325,0.155
'20:09.967',-0.325,0.150
'20:09.969',-0.330,0.145
'20:09.972',-0.310,0.150
'20:09.975',-0.305,0.170
'20:09.978',-0.300,0.165
'20:09.981',-0.305,0.170
'20:09.983',-0.310,0.150
'20:09.986',-0.320,0.155
'20:09.989',-0.320,0.150
'20:09.992',-0.325,0.170
'20:09.994',-0.295,0.165
'20:09.997',-0.300,0.155
'20:10.000',-0.305,0.145
'20:10.003',-0.305,0.140
'20:10.006',-0.310,0.150
'20:10.008',-0.300,0.165
'20:10.011',-0.295,0.170
'20:10.014',-0.305,0.185
'20:10.017',-0.305,0.185
'20:10.019',-0.280,0.215
'20:10.022',-0.210,0.235
'20:10.025',-0.075,0.220
'20:10.028',0.090,0.190
'20:10.031',0.250,0.120
'20:10.033',0.380,0.070
'20:10.036',0.520,0.015
'20:10.039',0.665,-0.030
'20:10.042',0.775,-0.085
'20:10.044',0.820,-0.180
'20:10.047',0.740,-0.250
'20:10.050',0.565,-0.305
'20:10.053',0.360,-0.290
'20:10.056',0.120,-0.280
'20:10.058',-0.195,-0.225
'20:10.061',-0.525,-0.165
'20:10.064',-0.800,-0.130
'20:10.067',-0.940,-0.090
'20:10.069',-0.915,-0.050
'20:10.072',-0.805,0.045
'20:10.075',-0.705,0.115
'20:10.078',-0.605,0.145
'20:10.081',-0.535,0.130
'20:10.083',-0.475,0.110
'20:10.086',-0.415,0.110
'20:10.089',-0.355,0.130
'20:10.092',-0.315,0.145
'20:10.094',-0.300,0.160
'20:10.097',-0.295,0.150
'20:10.100',-0.320,0.145
'20:10.103',-0.325,0.170
'20:10.106',-0.315,0.190
'20:10.108',-0.275,0.190
'20:10.111',-0.265,0.185
'20:10.114',-0.260,0.175
'20:10.117',-0.260,0.165
'20:10.119',-0.265,0.175
'20:10.122',-0.250,0.175
'20:10.125',-0.255,0.185
'20:10.128',-0.220,0.205
'20:10.131',-0.220,0.170
'20:10.133',-0.200,0.165
'20:10.136',-0.215,0.175
'20:10.139',-0.195,0.175
'20:10.142',-0.180,0.185
'20:10.144',-0.170,0.175
'20:10.147',-0.145,0.175
'20:10.150',-0.155,0.160
'20:10.153',-0.175,0.160
'20:10.156',-0.145,0.165
'20:10.158',-0.115,0.180
'20:10.161',-0.090,0.175
'20:10.164',-0.085,0.165
'20:10.167',-0.080,0.160
'20:10.169',-0.085,0.155
'20:10.172',-0.055,0.160
'20:10.175',-0.010,0.180
'20:10.178',0.020,0.170
'20:10.181',0.020,0.180
'20:10.183',0.020,0.145
'20:10.186',0.005,0.130
'20:10.189',0.025,0.135
'20:10.192',0.055,0.160
'20:10.194',0.080,0.145
'20:10.197',0.075,0.150
'20:10.200',0.075,0.135
'20:10.203',0.050,0.135
'20:10.206',0.050,0.150
'20:10.208',0.080,0.150
'20:10.211',0.105,0.155
'20:10.214',0.100,0.160
'20:10.217',0.085,0.145
'20:10.219',0.075,0.130
'20:10.222',0.085,0.140
'20:10.225',0.095,0.165
'20:10.228',0.100,0.175
'20:10.231',0.095,0.165
'20:10.233',0.085,0.140
'20:10.236',0.060,0.160
'20:10.239',0.050,0.170
'20:10.242',0.050,0.170
'20:10.244',0.060,0.180
'20:10.247',0.050,0.150
'20:10.250',0.010,0.145
'20:10.253',-0.010,0.165
'20:10.256',-0.030,0.175
'20:10.258',-0.045,0.190
'20:10.261',-0.055,0.190
'20:10.264',-0.080,0.170
'20:10.267',-0.105,0.160
'20:10.269',-0.150,0.160
'20:10.272',-0.160,0.185
'20:10.275',-0.175,0.205
'20:10.278',-0.160,0.195
'20:10.281',-0.180,0.185
'20:10.283',-0.205,0.165
'20:10.286',-0.245,0.170
'20:10.289',-0.230,0.180
'20:10.292',-0.230,0.185
'20:10.294',-0.240,0.205
'20:10.297',-0.270,0.175
'20:10.300',-0.285,0.175
'20:10.303',-0.295,0.180
'20:10.306',-0.300,0.190
'20:10.308',-0.290,0.210
'20:10.311',-0.280,0.195
'20:10.314',-0.290,0.170
'20:10.317',-0.310,0.160
'20:10.319',-0.315,0.155
'20:10.322',-0.315,0.165
'20:10.325',-0.300,0.165
'20:10.328',-0.290,0.180
'20:10.331',-0.290,0.170
'20:10.333',-0.305,0.160
'20:10.336',-0.330,0.170
'20:10.339',-0.325,0.185
'20:10.342',-0.310,0.180
'20:10.344',-0.285,0.185
'20:10.347',-0.285,0.170
'20:10.350',-0.295,0.165
'20:10.353',-0.305,0.175
'20:10.356',-0.290,0.190
'20:10.358',-0.265,0.215
'20:10.361',-0.255,0.215
'20:10.364',-0.240,0.200
'20:10.367',-0.255,0.195
'20:10.369',-0.260,0.180
'20:10.372',-0.250,0.200
'20:10.375',-0.215,0.205
'20:10.378',-0.185,0.200
'20:10.381',-0.180,0.195
'20:10.383',-0.185,0.175
'20:10.386',-0.205,0.175
'20:10.389',-0.210,0.185
'20:10.392',-0.210,0.200
'20:10.394',-0.210,0.165
'20:10.397',-0.220,0.150
'20:10.400',-0.245,0.115
'20:10.403',-0.265,0.125
'20:10.406',-0.280,0.135
'20:10.408',-0.270,0.145
'20:10.411',-0.265,0.150
'20:10.414',-0.260,0.150
'20:10.417',-0.275,0.125
'20:10.419',-0.285,0.130
'20:10.422',-0.260,0.150
'20:10.425',-0.250,0.155
'20:10.428',-0.265,0.185
'20:10.431',-0.305,0.160
'20:10.433',-0.325,0.150
'20:10.436',-0.330,0.160
'20:10.439',-0.325,0.175
'20:10.442',-0.315,0.165
'20:10.444',-0.305,0.170
'20:10.447',-0.310,0.160
'20:10.450',-0.330,0.145
'20:10.453',-0.330,0.130
'20:10.456',-0.320,0.150
'20:10.458',-0.295,0.165
'20:10.461',-0.290,0.170
'20:10.464',-0.290,0.160
'20:10.467',-0.305,0.125
'20:10.469',-0.325,0.145
'20:10.472',-0.310,0.140
'20:10.475',-0.310,0.170
'20:10.478',-0.285,0.175
'20:10.481',-0.300,0.150
'20:10.483',-0.300,0.145
'20:10.486',-0.315,0.125
'20:10.489',-0.310,0.150
'20:10.492',-0.300,0.165
'20:10.494',-0.295,0.175
'20:10.497',-0.310,0.165
'20:10.500',-0.320,0.145
'20:10.503',-0.330,0.160
'20:10.506',-0.310,0.150
'20:10.508',-0.300,0.165
'20:10.511',-0.275,0.165
'20:10.514',-0.300,0.165
'20:10.517',-0.305,0.145
'20:10.519',-0.315,0.150
'20:10.522',-0.320,0.140
'20:10.525',-0.315,0.160
'20:10.528',-0.315,0.155
'20:10.531',-0.335,0.165
'20:10.533',-0.360,0.155
'20:10.536',-0.375,0.190
'20:10.539',-0.335,0.215
'20:10.542',-0.230,0.225
'20:10.544',-0.095,0.185
'20:10.547',0.055,0.125
'20:10.550',0.195,0.050
'20:10.553',0.365,-0.005
'20:10.556',0.545,-0.065
'20:10.558',0.675,-0.110
'20:10.561',0.730,-0.170
'20:10.564',0.650,-0.245
'20:10.567',0.465,-0.320
'20:10.569',0.270,-0.305
'20:10.572',0.085,-0.295
'20:10.575',-0.170,-0.235
'20:10.578',-0.485,-0.190
'20:10.581',-0.800,-0.135
'20:10.583',-0.990,-0.090
'20:10.586',-0.990,-0.015
'20:10.589',-0.850,0.055
'20:10.592',-0.710,0.125
'20:10.594',-0.600,0.150
'20:10.597',-0.525,0.130
'20:10.600',-0.455,0.130
'20:10.603',-0.410,0.140
'20:10.606',-0.370,0.145
'20:10.608',-0.335,0.160
'20:10.611',-0.315,0.150
'20:10.614',-0.315,0.135
'20:10.617',-0.320,0.135
'20:10.619',-0.335,0.155
'20:10.622',-0.305,0.160
'20:10.625',-0.280,0.180
'20:10.628',-0.260,0.170
'20:10.631',-0.260,0.160
'20:10.633',-0.270,0.150
'20:10.636',-0.280,0.145
'20:10.639',-0.255,0.150
'20:10.642',-0.245,0.170
'20:10.644',-0.230,0.170
'20:10.647',-0.220,0.140
'20:10.650',-0.220,0.140
'20:10.653',-0.220,0.140
'20:10.656',-0.215,0.140
'20:10.658',-0.190,0.160
'20:10.661',-0.160,0.145
'20:10.664',-0.150,0.155
'20:10.667',-0.135,0.125
'20:10.669',-0.150,0.110
'20:10.672',-0.125,0.115
'20:10.675',-0.115,0.145
'20:10.678',-0.080,0.140
'20:10.681',-0.080,0.115
'20:10.683',-0.065,0.110
'20:10.686',-0.055,0.110
'20:10.689',-0.030,0.115
'20:10.692',0.005,0.115
'20:10.694',0.030,0.115
'20:10.697',0.035,0.090
'20:10.700',0.045,0.085
'20:10.703',0.050,0.075
'20:10.706',0.075,0.100
'20:10.708',0.100,0.090
'20:10.711',0.115,0.085
'20:10.714',0.120,0.095
'20:10.717',0.120,0.075
'20:10.719',0.115,0.065
'20:10.722',0.110,0.085
'20:10.725',0.125,0.115
'20:10.728',0.130,0.110
'20:10.731',0.135,0.090
'20:10.733',0.125,0.075
'20:10.736',0.110,0.080
'20:10.739',0.105,0.100
'20:10.742',0.115,0.115
'20:10.744',0.110,0.120
'20:10.747',0.090,0.120
'20:10.750',0.055,0.105
'20:10.753',0.010,0.125
'20:10.756',-0.010,0.145
'20:10.758',-0.025,0.160
'20:10.761',-0.030,0.160
'20:10.764',-0.060,0.145
'20:10.767',-0.100,0.130
'20:10.769',-0.135,0.140
'20:10.772',-0.155,0.165
'20:10.775',-0.175,0.185
'20:10.778',-0.170,0.185
'20:10.781',-0.200,0.180
'20:10.783',-0.230,0.165
'20:10.786',-0.260,0.160
'20:10.789',-0.275,0.175
'20:10.792',-0.275,0.175
'20:10.794',-0.280,0.190
'20:10.797',-0.285,0.180
'20:10.800',-0.315,0.170
'20:10.803',-0.335,0.155
'20:10.806',-0.345,0.165
'20:10.808',-0.330,0.205
'20:10.811',-0.305,0.200
'20:10.814',-0.300,0.190
'20:10.817',-0.320,0.165
'20:10.819',-0.345,0.160
'20:10.822',-0.370,0.175
'20:10.825',-0.340,0.200
'20:10.828',-0.320,0.195
'20:10.831',-0.320,0.180
'20:10.833',-0.345,0.160
'20:10.836',-0.355,0.175
'20:10.839',-0.360,0.190
'20:10.842',-0.335,0.205
'20:10.844',-0.325,0.200
'20:10.847',-0.335,0.185
'20:10.850',-0.335,0.180
'20:10.853',-0.340,0.165
'20:10.856',-0.335,0.185
'20:10.858',-0.330,0.195
'20:10.861',-0.310,0.200
'20:10.864',-0.315,0.200
'20:10.867',-0.320,0.175
'20:10.869',-0.325,0.185
'20:10.872',-0.320,0.195
'20:10.875',-0.300,0.220
'20:10.878',-0.280,0.210
'20:10.881',-0.275,0.205
'20:10.883',-0.285,0.185
'20:10.886',-0.280,0.200
'20:10.889',-0.265,0.215
'20:10.892',-0.230,0.230
'20:10.894',-0.220,0.230
'20:10.897',-0.235,0.215
'20:10.900',-0.255,0.190
'20:10.903',-0.265,0.170
'20:10.906',-0.280,0.170
'20:10.908',-0.270,0.180
'20:10.911',-0.275,0.160
'20:10.914',-0.280,0.140
'20:10.917',-0.300,0.130
'20:10.919',-0.320,0.135
'20:10.922',-0.335,0.130
'20:10.925',-0.320,0.160
'20:10.928',-0.305,0.145
'20:10.931',-0.315,0.150
'20:10.933',-0.320,0.140
'20:10.936',-0.340,0.125
'20:10.939',-0.345,0.155
'20:10.942',-0.355,0.165
'20:10.944',-0.355,0.170
'20:10.947',-0.365,0.150
'20:10.950',-0.365,0.140
'20:10.953',-0.375,0.135
'20:10.956',-0.375,0.150
'20:10.958',-0.360,0.155
'20:10.961',-0.335,0.160
'20:10.964',-0.350,0.155
'20:10.967',-0.365,0.125
'20:10.969',-0.375,0.130
'20:10.972',-0.370,0.140
'20:10.975',-0.370,0.170
'20:10.978',-0.355,0.180
'20:10.981',-0.365,0.165
'20:10.983',-0.380,0.145
'20:10.986',-0.370,0.135
'20:10.989',-0.365,0.145
'20:10.992',-0.345,0.170
'20:10.994',-0.325,0.170
'20:10.997',-0.330,0.150
'20:11.000',-0.340,0.150
'20:11.003',-0.365,0.150
'20:11.006',-0.365,0.150
'20:11.008',-0.365,0.175
'20:11.011',-0.350,0.180
'20:11.014',-0.370,0.160
'20:11.017',-0.370,0.155
'20:11.019',-0.370,0.150
'20:11.022',-0.360,0.160
'20:11.025',-0.350,0.170
'20:11.028',-0.335,0.170
'20:11.031',-0.335,0.160
'20:11.033',-0.350,0.140
'20:11.036',-0.355,0.145
'20:11.039',-0.370,0.165
'20:11.042',-0.350,0.180
'20:11.044',-0.340,0.200
'20:11.047',-0.330,0.210
'20:11.050',-0.315,0.200
'20:11.053',-0.215,0.185
'20:11.056',-0.090,0.160
'20:11.058',0.075,0.145
'20:11.061',0.235,0.075
'20:11.064',0.395,-0.005
'20:11.067',0.535,-0.065
'20:11.069',0.650,-0.130
'20:11.072',0.720,-0.190
'20:11.075',0.685,-0.245
'20:11.078',0.520,-0.260
'20:11.081',0.320,-0.270
'20:11.083',0.100,-0.280
'20:11.086',-0.205,-0.250
'20:11.089',-0.545,-0.175
'20:11.092',-0.815,-0.105
'20:11.094',-0.955,-0.060
'20:11.097',-0.975,-0.005
'20:11.100',-0.875,0.050
'20:11.103',-0.760,0.095
'20:11.106',-0.675,0.130
'20:11.108',-0.575,0.145
'20:11.111',-0.495,0.155
'20:11.114',-0.420,0.125
'20:11.117',-0.390,0.120
'20:11.119',-0.375,0.105
'20:11.122',-0.375,0.140
'20:11.125',-0.345,0.155
'20:11.128',-0.335,0.170
'20:11.131',-0.330,0.155
'20:11.133',-0.330,0.145
'20:11.136',-0.330,0.140
'20:11.139',-0.320,0.150
'20:11.142',-0.295,0.160
'20:11.144',-0.285,0.175
'20:11.147',-0.295,0.155
'20:11.150',-0.285,0.145
'20:11.153',-0.285,0.155
'20:11.156',-0.265,0.150
'20:11.158',-0.250,0.165
'20:11.161',-0.215,0.160
'20:11.164',-0.225,0.155
'20:11.167',-0.240,0.145
'20:11.169',-0.225,0.140
'20:11.172',-0.220,0.150
'20:11.175',-0.200,0.170
'20:11.178',-0.175,0.165
'20:11.181',-0.175,0.140
'20:11.183',-0.170,0.125
'20:11.186',-0.165,0.125
'20:11.189',-0.135,0.135
'20:11.192',-0.105,0.145
'20:11.194',-0.085,0.145
'20:11.197',-0.055,0.130
'20:11.200',-0.055,0.115
'20:11.203',-0.045,0.105
'20:11.206',-0.020,0.125
'20:11.208',0.000,0.130
'20:11.211',0.020,0.115
'20:11.214',0.035,0.105
'20:11.217',0.035,0.090
'20:11.219',0.025,0.080
'20:11.222',0.050,0.095
'20:11.225',0.080,0.115
'20:11.228',0.090,0.100
'20:11.231',0.110,0.105
'20:11.233',0.115,0.085
'20:11.236',0.100,0.085
'20:11.239',0.105,0.110
'20:11.242',0.110,0.100
'20:11.244',0.120,0.105
'20:11.247',0.110,0.110
'20:11.250',0.100,0.085
'20:11.253',0.090,0.085
'20:11.256',0.090,0.095
'20:11.258',0.110,0.110
'20:11.261',0.105,0.110
'20:11.264',0.085,0.100
'20:11.267',0.060,0.095
'20:11.269',0.030,0.110
'20:11.272',0.020,0.130
'20:11.275',0.005,0.150
'20:11.278',-0.005,0.155
'20:11.281',-0.040,0.140
'20:11.283',-0.080,0.130
'20:11.286',-0.110,0.145
'20:11.289',-0.130,0.155
'20:11.292',-0.160,0.160
'20:11.294',-0.170,0.175
'20:11.297',-0.205,0.170
'20:11.300',-0.225,0.155
'20:11.303',-0.235,0.155
'20:11.306',-0.255,0.160
'20:11.308',-0.250,0.195
'20:11.311',-0.245,0.190
'20:11.314',-0.255,0.175
'20:11.317',-0.280,0.170
'20:11.319',-0.310,0.165
'20:11.322',-0.330,0.175
'20:11.325',-0.300,0.190
'20:11.328',-0.290,0.195
'20:11.331',-0.290,0.180
'20:11.333',-0.290,0.165
'20:11.336',-0.315,0.165
'20:11.339',-0.325,0.175
'20:11.342',-0.320,0.190
'20:11.344',-0.310,0.205
'20:11.347',-0.305,0.195
'20:11.350',-0.315,0.170
'20:11.353',-0.335,0.165
'20:11.356',-0.335,0.175
'20:11.358',-0.330,0.205
'20:11.361',-0.310,0.190
'20:11.364',-0.315,0.185
'20:11.367',-0.320,0.175
'20:11.369',-0.345,0.180
'20:11.372',-0.335,0.180
'20:11.375',-0.320,0.205
'20:11.378',-0.315,0.190
'20:11.381',-0.305,0.185
'20:11.383',-0.305,0.175
'20:11.386',-0.315,0.185
'20:11.389',-0.300,0.200
'20:11.392',-0.295,0.230
'20:11.394',-0.265,0.220
'20:11.397',-0.265,0.205
'20:11.400',-0.280,0.195
'20:11.403',-0.285,0.200
'20:11.406',-0.280,0.220
'20:11.408',-0.260,0.215
'20:11.411',-0.230,0.215
'20:11.414',-0.210,0.215
'20:11.417',-0.220,0.210
'20:11.419',-0.225,0.190
'20:11.422',-0.215,0.195
'20:11.425',-0.210,0.195
'20:11.428',-0.205,0.190
'20:11.431',-0.230,0.165
'20:11.433',-0.270,0.155
'20:11.436',-0.285,0.155
'20:11.439',-0.290,0.155
'20:11.442',-0.275,0.160
'20:11.444',-0.280,0.160
'20:11.447',-0.305,0.160
'20:11.450',-0.320,0.130
'20:11.453',-0.315,0.145
'20:11.456',-0.305,0.145
'20:11.458',-0.280,0.180
'20:11.461',-0.270,0.195
'20:11.464',-0.300,0.175
'20:11.467',-0.325,0.170
'20:11.469',-0.345,0.165
'20:11.472',-0.345,0.165
'20:11.475',-0.335,0.175
'20:11.478',-0.315,0.165
'20:11.481',-0.330,0.160
'20:11.483',-0.350,0.145
'20:11.486',-0.370,0.145
'20:11.489',-0.360,0.160
'20:11.492',-0.355,0.190
'20:11.494',-0.330,0.175
'20:11.497',-0.335,0.150
'20:11.500',-0.345,0.160
'20:11.503',-0.355,0.150
'20:11.506',-0.350,0.175
'20:11.508',-0.355,0.185
'20:11.511',-0.330,0.180
'20:11.514',-0.335,0.185
'20:11.517',-0.350,0.160
'20:11.519',-0.350,0.155
'20:11.522',-0.355,0.175
'20:11.525',-0.340,0.185
'20:11.528',-0.320,0.185
'20:11.531',-0.325,0.170
'20:11.533',-0.330,0.150
'20:11.536',-0.340,0.145
'20:11.539',-0.340,0.160
'20:11.542',-0.330,0.175
'20:11.544',-0.320,0.180
'20:11.547',-0.325,0.165
'20:11.550',-0.335,0.140
'20:11.553',-0.340,0.155
'20:11.556',-0.340,0.165
'20:11.558',-0.325,0.175
'20:11.561',-0.315,0.170
'20:11.564',-0.330,0.185
'20:11.567',-0.345,0.195
'20:11.569',-0.360,0.200
'20:11.572',-0.310,0.210
'20:11.575',-0.205,0.230
'20:11.578',-0.065,0.185
'20:11.581',0.060,0.110
'20:11.583',0.195,0.050
'20:11.586',0.350,-0.010
'20:11.589',0.495,-0.070
'20:11.592',0.605,-0.095
'20:11.594',0.625,-0.180
'20:11.597',0.495,-0.220
'20:11.600',0.310,-0.230
'20:11.603',0.115,-0.210
'20:11.606',-0.165,-0.180
'20:11.608',-0.515,-0.105
'20:11.611',-0.810,-0.040
'20:11.614',-0.985,-0.010
'20:11.617',-0.985,0.025
'20:11.619',-0.855,0.075
'20:11.622',-0.720,0.130
'20:11.625',-0.615,0.165
'20:11.628',-0.520,0.170
'20:11.631',-0.435,0.135
'20:11.633',-0.395,0.130
'20:11.636',-0.375,0.125
'20:11.639',-0.350,0.150
'20:11.642',-0.345,0.150
'20:11.644',-0.300,0.170
'20:11.647',-0.305,0.155
'20:11.650',-0.315,0.155
'20:11.653',-0.315,0.140
'20:11.656',-0.315,0.170
'20:11.658',-0.305,0.165
'20:11.661',-0.295,0.170
'20:11.664',-0.285,0.160
'20:11.667',-0.285,0.140
'20:11.669',-0.285,0.150
'20:11.672',-0.255,0.140
'20:11.675',-0.245,0.145
'20:11.678',-0.220,0.155
'20:11.681',-0.225,0.155
'20:11.683',-0.220,0.135
'20:11.686',-0.220,0.135
'20:11.689',-0.195,0.145
'20:11.692',-0.170,0.150
'20:11.694',-0.155,0.145
'20:11.697',-0.145,0.135
'20:11.700',-0.140,0.120
'20:11.703',-0.130,0.125
'20:11.706',-0.110,0.130
'20:11.708',-0.080,0.135
'20:11.711',-0.045,0.130
'20:11.714',-0.035,0.125
'20:11.717',-0.030,0.095
'20:11.719',-0.010,0.095
'20:11.722',0.010,0.100
'20:11.725',0.030,0.110
'20:11.728',0.040,0.115
'20:11.731',0.045,0.085
'20:11.733',0.050,0.085
'20:11.736',0.060,0.075
'20:11.739',0.070,0.095
'20:11.742',0.105,0.105
'20:11.744',0.120,0.100
'20:11.747',0.115,0.100
'20:11.750',0.105,0.065
'20:11.753',0.105,0.090
'20:11.756',0.120,0.090
'20:11.758',0.120,0.090
'20:11.761',0.140,0.100
'20:11.764',0.130,0.090
'20:11.767',0.110,0.085
'20:11.769',0.085,0.080
'20:11.772',0.070,0.095
'20:11.775',0.070,0.120
'20:11.778',0.075,0.125
'20:11.781',0.065,0.120
'20:11.783',0.030,0.105
'20:11.786',-0.010,0.100
'20:11.789',-0.030,0.125
'20:11.792',-0.045,0.145
'20:11.794',-0.065,0.150
'20:11.797',-0.100,0.150
'20:11.800',-0.140,0.135
'20:11.803',-0.165,0.130
'20:11.806',-0.200,0.150
'20:11.808',-0.205,0.155
'20:11.811',-0.205,0.165
'20:11.814',-0.225,0.165
'20:11.817',-0.255,0.145
'20:11.819',-0.285,0.145
'20:11.822',-0.290,0.160
'20:11.825',-0.295,0.170
'20:11.828',-0.280,0.190
'20:11.831',-0.285,0.165
'20:11.833',-0.315,0.155
'20:11.836',-0.325,0.145
'20:11.839',-0.330,0.165
'20:11.842',-0.325,0.170
'20:11.844',-0.310,0.165
'20:11.847',-0.330,0.170
'20:11.850',-0.345,0.150
'20:11.853',-0.345,0.155
'20:11.856',-0.345,0.165
'20:11.858',-0.325,0.165
'20:11.861',-0.305,0.175
'20:11.864',-0.310,0.155
'20:11.867',-0.320,0.145
'20:11.869',-0.340,0.140
'20:11.872',-0.335,0.170
'20:11.875',-0.325,0.175
'20:11.878',-0.310,0.170
'20:11.881',-0.315,0.165
'20:11.883',-0.320,0.155
'20:11.886',-0.330,0.145
'20:11.889',-0.325,0.165
'20:11.892',-0.300,0.175
'20:11.894',-0.285,0.190
'20:11.897',-0.270,0.180
'20:11.900',-0.275,0.165
'20:11.903',-0.275,0.180
'20:11.906',-0.275,0.185
'20:11.908',-0.260,0.195
'20:11.911',-0.250,0.205
'20:11.914',-0.245,0.195
'20:11.917',-0.255,0.185
'20:11.919',-0.245,0.175
'20:11.922',-0.240,0.180
'20:11.925',-0.225,0.190
'20:11.928',-0.200,0.195
'20:11.931',-0.205,0.155
'20:11.933',-0.235,0.160
'20:11.936',-0.260,0.150
'20:11.939',-0.250,0.140
'20:11.942',-0.255,0.165
'20:11.944',-0.240,0.155
'20:11.947',-0.270,0.150
'20:11.950',-0.290,0.125
'20:11.953',-0.325,0.120
'20:11.956',-0.330,0.120
'20:11.958',-0.300,0.150
'20:11.961',-0.285,0.140
'20:11.964',-0.285,0.150
'20:11.967',-0.290,0.150
'20:11.969',-0.315,0.135
'20:11.972',-0.340,0.155
'20:11.975',-0.335,0.165
'20:11.978',-0.325,0.170
'20:11.981',-0.325,0.155
'20:11.983',-0.330,0.120
'20:11.986',-0.345,0.140
'20:11.989',-0.340,0.155
'20:11.992',-0.330,0.155
'20:11.994',-0.325,0.150
'20:11.997',-0.335,0.145
'20:12.000',-0.340,0.135
'20:12.003',-0.355,0.140
'20:12.006',-0.360,0.150
'20:12.008',-0.340,0.170
'20:12.011',-0.330,0.165
'20:12.014',-0.315,0.145
'20:12.017',-0.320,0.145
'20:12.019',-0.335,0.145
'20:12.022',-0.345,0.160
'20:12.025',-0.325,0.185
'20:12.028',-0.335,0.180
'20:12.031',-0.335,0.180
'20:12.033',-0.345,0.155
'20:12.036',-0.350,0.145
'20:12.039',-0.355,0.170
'20:12.042',-0.335,0.180
'20:12.044',-0.320,0.180
'20:12.047',-0.315,0.160
'20:12.050',-0.330,0.150
'20:12.053',-0.330,0.140
'20:12.056',-0.335,0.170
'20:12.058',-0.315,0.190
'20:12.061',-0.305,0.180
'20:12.064',-0.315,0.165
'20:12.067',-0.335,0.135
'20:12.069',-0.350,0.150
'20:12.072',-0.345,0.165
'20:12.075',-0.335,0.185
'20:12.078',-0.330,0.215
'20:12.081',-0.315,0.215
'20:12.083',-0.265,0.195
'20:12.086',-0.185,0.165
'20:12.089',-0.055,0.140
'20:12.092',0.090,0.105
'20:12.094',0.235,0.065
'20:12.097',0.385,-0.005
'20:12.100',0.510,-0.070
'20:12.103',0.590,-0.130
'20:12.106',0.625,-0.160
'20:12.108',0.580,-0.190
'20:12.111',0.470,-0.210
'20:12.114',0.320,-0.220
'20:12.117',0.100,-0.200
'20:12.119',-0.180,-0.175
'20:12.122',-0.495,-0.110
'20:12.125',-0.760,-0.045
'20:12.128',-0.940,-0.015
'20:12.131',-0.960,0.005
'20:12.133',-0.890,0.055
'20:12.136',-0.780,0.095
'20:12.139',-0.690,0.125
'20:12.142',-0.620,0.165
'20:12.144',-0.525,0.160
'20:12.147',-0.460,0.160
'20:12.150',-0.415,0.125
'20:12.153',-0.390,0.135
'20:12.156',-0.370,0.145
'20:12.158',-0.345,0.155
'20:12.161',-0.320,0.165
'20:12.164',-0.315,0.170
'20:12.167',-0.325,0.170
'20:12.169',-0.325,0.160
'20:12.172',-0.305,0.155
'20:12.175',-0.290,0.180
'20:12.178',-0.265,0.175
'20:12.181',-0.285,0.150
'20:12.183',-0.275,0.135
'20:12.186',-0.275,0.135
'20:12.189',-0.270,0.140
'20:12.192',-0.260,0.165
'20:12.194',-0.250,0.160
'20:12.197',-0.240,0.155
'20:12.200',-0.250,0.140
'20:12.203',-0.240,0.145
'20:12.206',-0.235,0.145
'20:12.208',-0.210,0.160
'20:12.211',-0.185,0.165
'20:12.214',-0.180,0.140
'20:12.217',-0.185,0.135
'20:12.219',-0.175,0.135
'20:12.222',-0.150,0.130
'20:12.225',-0.135,0.140
'20:12.228',-0.135,0.145
'20:12.231',-0.125,0.130
'20:12.233',-0.115,0.110
'20:12.236',-0.100,0.115
'20:12.239',-0.080,0.120
'20:12.242',-0.060,0.130
'20:12.244',-0.030,0.130
'20:12.247',-0.020,0.100
'20:12.250',-0.015,0.090
'20:12.253',-0.015,0.095
'20:12.256',0.015,0.100
'20:12.258',0.035,0.115
'20:12.261',0.050,0.115
'20:12.264',0.075,0.095
'20:12.267',0.065,0.090
'20:12.269',0.055,0.080
'20:12.272',0.055,0.090
'20:12.275',0.085,0.105
'20:12.278',0.105,0.105
'20:12.281',0.110,0.090
'20:12.283',0.105,0.070
'20:12.286',0.095,0.080
'20:12.289',0.095,0.085
'20:12.292',0.100,0.110
'20:12.294',0.105,0.110
'20:12.297',0.105,0.100
'20:12.300',0.095,0.085
'20:12.303',0.080,0.090
'20:12.306',0.075,0.115
'20:12.308',0.070,0.120
'20:12.311',0.075,0.120
'20:12.314',0.055,0.110
'20:12.317',0.015,0.120
'20:12.319',-0.020,0.110
'20:12.322',-0.035,0.130
'20:12.325',-0.050,0.150
'20:12.328',-0.045,0.150
'20:12.331',-0.065,0.155
'20:12.333',-0.110,0.145
'20:12.336',-0.145,0.135
'20:12.339',-0.160,0.155
'20:12.342',-0.165,0.175
'20:12.344',-0.170,0.180
'20:12.347',-0.180,0.165
'20:12.350',-0.205,0.145
'20:12.353',-0.245,0.145
'20:12.356',-0.260,0.165
'20:12.358',-0.260,0.180
'20:12.361',-0.260,0.175
'20:12.364',-0.270,0.170
'20:12.367',-0.295,0.150
'20:12.369',-0.315,0.150
'20:12.372',-0.305,0.165
'20:12.375',-0.295,0.185
'20:12.378',-0.285,0.185
'20:12.381',-0.295,0.175
'20:12.383',-0.315,0.150
'20:12.386',-0.325,0.155
'20:12.389',-0.325,0.170
'20:12.392',-0.320,0.170
'20:12.394',-0.315,0.180
'20:12.397',-0.330,0.175
'20:12.400',-0.335,0.160
'20:12.403',-0.345,0.155
'20:12.406',-0.340,0.165
'20:12.408',-0.330,0.175
'20:12.411',-0.320,0.175
'20:12.414',-0.320,0.160
'20:12.417',-0.330,0.160
'20:12.419',-0.335,0.165
'20:12.422',-0.330,0.165
'20:12.425',-0.325,0.170
'20:12.428',-0.310,0.195
'20:12.431',-0.310,0.180
'20:12.433',-0.325,0.165
'20:12.436',-0.335,0.165
'20:12.439',-0.325,0.185
'20:12.442',-0.300,0.205
'20:12.444',-0.295,0.205
'20:12.447',-0.295,0.195
'20:12.450',-0.305,0.185
'20:12.453',-0.310,0.185
'20:12.456',-0.295,0.215
'20:12.458',-0.275,0.215
'20:12.461',-0.235,0.220
'20:12.464',-0.230,0.200
'20:12.467',-0.235,0.195
'20:12.469',-0.240,0.195
'20:12.472',-0.235,0.180
'20:12.475',-0.230,0.195
'20:12.478',-0.220,0.185
'20:12.481',-0.240,0.170
'20:12.483',-0.260,0.135
'20:12.486',-0.290,0.140
'20:12.489',-0.290,0.160
'20:12.492',-0.275,0.155
'20:12.494',-0.260,0.165
'20:12.497',-0.275,0.140
'20:12.500',-0.300,0.135
'20:12.503',-0.325,0.130
'20:12.506',-0.315,0.145
'20:12.508',-0.295,0.145
'20:12.511',-0.275,0.165
'20:12.514',-0.290,0.160
'20:12.517',-0.300,0.150
'20:12.519',-0.350,0.155
'20:12.522',-0.345,0.165
'20:12.525',-0.335,0.175
'20:12.528',-0.325,0.175
'20:12.531',-0.340,0.160
'20:12.533',-0.345,0.140
'20:12.536',-0.360,0.145
'20:12.539',-0.350,0.155
'20:12.542',-0.335,0.180
'20:12.544',-0.320,0.165
'20:12.547',-0.320,0.145
'20:12.550',-0.335,0.160
'20:12.553',-0.360,0.145
'20:12.556',-0.360,0.155
'20:12.558',-0.345,0.165
'20:12.561',-0.335,0.180
'20:12.564',-0.345,0.155
'20:12.567',-0.365,0.150
'20:12.569',-0.375,0.150
'20:12.572',-0.370,0.150
'20:12.575',-0.350,0.160
'20:12.578',-0.330,0.165
'20:12.581',-0.340,0.150
'20:12.583',-0.350,0.150
'20:12.586',-0.355,0.145
'20:12.589',-0.365,0.155
'20:12.592',-0.345,0.170
'20:12.594',-0.330,0.165
'20:12.597',-0.325,0.165
'20:12.600',-0.340,0.150
'20:12.603',-0.355,0.140
'20:12.606',-0.350,0.145
'20:12.608',-0.325,0.160
'20:12.611',-0.320,0.175
'20:12.614',-0.330,0.165
'20:12.617',-0.325,0.145
'20:12.619',-0.355,0.150
'20:12.622',-0.365,0.175
'20:12.625',-0.365,0.210
'20:12.628',-0.320,0.225
'20:12.631',-0.240,0.200
'20:12.633',-0.110,0.150
'20:12.636',0.055,0.105
'20:12.639',0.220,0.075
'20:12.642',0.405,0.025
'20:12.644',0.595,-0.040
'20:12.647',0.705,-0.125
'20:12.650',0.730,-0.205
'20:12.653',0.605,-0.255
'20:12.656',0.430,-0.260
'20:12.658',0.265,-0.250
'20:12.661',0.040,-0.225
'20:12.664',-0.275,-0.190
'20:12.667',-0.630,-0.150
'20:12.669',-0.880,-0.105
'20:12.672',-1.020,-0.035
'20:12.675',-0.955,0.040
'20:12.678',-0.825,0.105
'20:12.681',-0.705,0.125
'20:12.683',-0.640,0.140
'20:12.686',-0.570,0.145
'20:12.689',-0.495,0.140
'20:12.692',-0.425,0.150
'20:12.694',-0.365,0.155
'20:12.697',-0.365,0.155
'20:12.700',-0.350,0.135
'20:12.703',-0.350,0.135
'20:12.706',-0.345,0.155
'20:12.708',-0.305,0.170
'20:12.711',-0.295,0.175
'20:12.714',-0.300,0.165
'20:12.717',-0.315,0.140
'20:12.719',-0.325,0.155
'20:12.722',-0.310,0.170
'20:12.725',-0.290,0.190
'20:12.728',-0.250,0.180
'20:12.731',-0.250,0.175
'20:12.733',-0.245,0.165
'20:12.736',-0.250,0.150
'20:12.739',-0.245,0.170
'20:12.742',-0.210,0.180
'20:12.744',-0.215,0.170
'20:12.747',-0.210,0.175
'20:12.750',-0.215,0.155
'20:12.753',-0.210,0.150
'20:12.756',-0.200,0.155
'20:12.758',-0.165,0.185
'20:12.761',-0.135,0.170
'20:12.764',-0.145,0.150
'20:12.767',-0.140,0.130
'20:12.769',-0.145,0.135
'20:12.772',-0.130,0.130
'20:12.775',-0.110,0.175
'20:12.778',-0.075,0.165
'20:12.781',-0.050,0.145
'20:12.783',-0.045,0.120
'20:12.786',-0.055,0.120
'20:12.789',-0.045,0.140
'20:12.792',-0.015,0.135
'20:12.794',0.005,0.140
'20:12.797',0.030,0.125
'20:12.800',0.030,0.105
'20:12.803',0.030,0.105
'20:12.806',0.045,0.130
'20:12.808',0.065,0.140
'20:12.811',0.085,0.135
'20:12.814',0.085,0.125
'20:12.817',0.085,0.110
'20:12.819',0.085,0.105
'20:12.822',0.105,0.115
'20:12.825',0.115,0.130
'20:12.828',0.125,0.115
'20:12.831',0.120,0.110
'20:12.833',0.110,0.095
'20:12.836',0.095,0.100
'20:12.839',0.110,0.110
'20:12.842',0.115,0.115
'20:12.844',0.135,0.135
'20:12.847',0.115,0.135
'20:12.850',0.085,0.105
'20:12.853',0.060,0.120
'20:12.856',0.060,0.125
'20:12.858',0.045,0.150
'20:12.861',0.035,0.150
'20:12.864',0.005,0.135
'20:12.867',-0.025,0.140
'20:12.869',-0.070,0.140
'20:12.872',-0.085,0.150
'20:12.875',-0.095,0.175
'20:12.878',-0.100,0.170
'20:12.881',-0.115,0.170
'20:12.883',-0.155,0.165
'20:12.886',-0.180,0.155
'20:12.889',-0.195,0.170
'20:12.892',-0.200,0.190
'20:12.894',-0.205,0.185
'20:12.897',-0.225,0.190
'20:12.900',-0.240,0.170
'20:12.903',-0.260,0.155
'20:12.906',-0.270,0.175
'20:12.908',-0.275,0.180
'20:12.911',-0.280,0.190
'20:12.914',-0.295,0.180
'20:12.917',-0.320,0.170
'20:12.919',-0.325,0.180
'20:12.922',-0.320,0.170
'20:12.925',-0.310,0.195
'20:12.928',-0.295,0.200
'20:12.931',-0.315,0.190
'20:12.933',-0.325,0.175
'20:12.936',-0.335,0.170
'20:12.939',-0.325,0.190
'20:12.942',-0.315,0.195
'20:12.944',-0.300,0.195
'20:12.947',-0.305,0.180
'20:12.950',-0.315,0.180
'20:12.953',-0.325,0.180
'20:12.956',-0.330,0.205
'20:12.958',-0.315,0.200
'20:12.961',-0.305,0.200
'20:12.964',-0.315,0.185
'20:12.967',-0.325,0.180
'20:12.969',-0.335,0.185
'20:12.972',-0.325,0.205
'20:12.975',-0.305,0.220
'20:12.978',-0.295,0.215
'20:12.981',-0.290,0.210
'20:12.983',-0.295,0.205
'20:12.986',-0.285,0.205
'20:12.989',-0.275,0.225
'20:12.992',-0.270,0.240
'20:12.994',-0.265,0.225
'20:12.997',-0.265,0.225
'20:13.000',-0.270,0.205
'20:13.003',-0.275,0.210
'20:13.006',-0.250,0.220
'20:13.008',-0.225,0.235
'20:13.011',-0.215,0.235
'20:13.014',-0.215,0.210
'20:13.017',-0.215,0.200
'20:13.019',-0.205,0.200
'20:13.022',-0.215,0.190
'20:13.025',-0.220,0.200
'20:13.028',-0.225,0.190
'20:13.031',-0.255,0.175
'20:13.033',-0.275,0.170
'20:13.036',-0.290,0.160
'20:13.039',-0.290,0.160
'20:13.042',-0.295,0.185
'20:13.044',-0.290,0.175
'20:13.047',-0.300,0.155
'20:13.050',-0.335,0.170
'20:13.053',-0.345,0.165
'20:13.056',-0.325,0.165
'20:13.058',-0.300,0.190
'20:13.061',-0.290,0.200
'20:13.064',-0.300,0.175
'20:13.067',-0.340,0.165
'20:13.069',-0.365,0.160
'20:13.072',-0.355,0.185
'20:13.075',-0.340,0.205
'20:13.078',-0.325,0.215
'20:13.081',-0.325,0.200
'20:13.083',-0.355,0.185
'20:13.086',-0.365,0.170
'20:13.089',-0.365,0.175
'20:13.092',-0.350,0.200
'20:13.094',-0.330,0.205
'20:13.097',-0.345,0.190
'20:13.100',-0.355,0.165
'20:13.103',-0.370,0.170
'20:13.106',-0.365,0.195
'20:13.108',-0.340,0.200
'20:13.111',-0.320,0.200
'20:13.114',-0.325,0.190
'20:13.117',-0.340,0.175
'20:13.119',-0.355,0.165
'20:13.122',-0.340,0.190
'20:13.125',-0.345,0.190
'20:13.128',-0.335,0.200
'20:13.131',-0.330,0.185
'20:13.133',-0.350,0.180
'20:13.136',-0.355,0.165
'20:13.139',-0.345,0.190
'20:13.142',-0.335,0.215
'20:13.144',-0.325,0.215
'20:13.147',-0.340,0.190
'20:13.150',-0.335,0.175
'20:13.153',-0.350,0.175
'20:13.156',-0.345,0.190
'20:13.158',-0.330,0.200
'20:13.161',-0.310,0.220
'20:13.164',-0.310,0.195
'20:13.167',-0.330,0.175
'20:13.169',-0.345,0.160
'20:13.172',-0.350,0.185
'20:13.175',-0.345,0.230
'20:13.178',-0.330,0.230
'20:13.181',-0.340,0.235
'20:13.183',-0.350,0.230
'20:13.186',-0.335,0.235
'20:13.189',-0.235,0.240
'20:13.192',-0.115,0.235
'20:13.194',0.040,0.195
'20:13.197',0.180,0.145
'20:13.200',0.295,0.085
'20:13.203',0.415,0.030
'20:13.206',0.570,-0.005
'20:13.208',0.690,-0.040
'20:13.211',0.765,-0.100
'20:13.214',0.770,-0.175
'20:13.217',0.680,-0.245
'20:13.219',0.495,-0.275
'20:13.222',0.335,-0.260
'20:13.225',0.210,-0.240
'20:13.228',0.000,-0.225
'20:13.231',-0.330,-0.180
'20:13.233',-0.640,-0.145
'20:13.236',-0.895,-0.090
'20:13.239',-0.985,-0.015
'20:13.242',-0.920,0.055
'20:13.244',-0.785,0.135
'20:13.247',-0.690,0.170
'20:13.250',-0.625,0.165
'20:13.253',-0.565,0.165
'20:13.256',-0.475,0.190
'20:13.258',-0.405,0.200
'20:13.261',-0.365,0.195
'20:13.264',-0.360,0.180
'20:13.267',-0.360,0.175
'20:13.269',-0.355,0.165
'20:13.272',-0.345,0.180
'20:13.275',-0.330,0.205
'20:13.278',-0.295,0.215
'20:13.281',-0.295,0.200
'20:13.283',-0.315,0.185
'20:13.286',-0.315,0.190
'20:13.289',-0.290,0.190
'20:13.292',-0.275,0.205
'20:13.294',-0.255,0.205
'20:13.297',-0.270,0.180
'20:13.300',-0.270,0.165
'20:13.303',-0.280,0.170
'20:13.306',-0.275,0.190
'20:13.308',-0.255,0.195
'20:13.311',-0.240,0.195
'20:13.314',-0.245,0.200
'20:13.317',-0.245,0.175
'20:13.319',-0.240,0.175
'20:13.322',-0.215,0.190
'20:13.325',-0.195,0.185
'20:13.328',-0.170,0.185
'20:13.331',-0.170,0.180
'20:13.333',-0.170,0.165
'20:13.336',-0.165,0.160
'20:13.339',-0.140,0.160
'20:13.342',-0.130,0.185
'20:13.344',-0.110,0.180
'20:13.347',-0.100,0.170
'20:13.350',-0.090,0.145
'20:13.353',-0.075,0.140
'20:13.356',-0.055,0.150
'20:13.358',-0.030,0.150
'20:13.361',-0.010,0.165
'20:13.364',0.005,0.145
