'Elapsed time','MLII','V1'
'hh:mm:ss.mmm','mV','mV'
'7:00.000',0.595,0.350
'7:00.003',0.595,0.355
'7:00.006',0.610,0.360
'7:00.008',0.635,0.370
'7:00.011',0.665,0.390
'7:00.014',0.710,0.385
'7:00.017',0.720,0.370
'7:00.019',0.735,0.360
'7:00.022',0.750,0.360
'7:00.025',0.775,0.380
'7:00.028',0.795,0.400
'7:00.031',0.830,0.395
'7:00.033',0.850,0.400
'7:00.036',0.855,0.410
'7:00.039',0.870,0.410
'7:00.042',0.870,0.430
'7:00.044',0.920,0.445
'7:00.047',0.935,0.445
'7:00.050',0.935,0.440
'7:00.053',0.940,0.445
'7:00.056',0.930,0.460
'7:00.058',0.935,0.465
'7:00.061',0.960,0.480
'7:00.064',0.975,0.490
'7:00.067',0.955,0.485
'7:00.069',0.930,0.500
'7:00.072',0.915,0.505
'7:00.075',0.920,0.515
'7:00.078',0.915,0.520
'7:00.081',0.920,0.545
'7:00.083',0.900,0.540
'7:00.086',0.850,0.535
'7:00.089',0.825,0.540
'7:00.092',0.800,0.545
'7:00.094',0.790,0.550
'7:00.097',0.740,0.545
'7:00.100',0.715,0.540
'7:00.103',0.650,0.530
'7:00.106',0.615,0.530
'7:00.108',0.575,0.545
'7:00.111',0.565,0.540
'7:00.114',0.530,0.530
'7:00.117',0.495,0.495
'7:00.119',0.440,0.480
'7:00.122',0.395,0.460
'7:00.125',0.355,0.460
'7:00.128',0.330,0.450
'7:00.131',0.300,0.435
'7:00.133',0.270,0.410
'7:00.136',0.230,0.395
'7:00.139',0.190,0.370
'7:00.142',0.170,0.365
'7:00.144',0.150,0.350
'7:00.147',0.120,0.330
'7:00.150',0.115,0.310
'7:00.153',0.080,0.295
'7:00.156',0.055,0.270
'7:00.158',0.040,0.275
'7:00.161',0.040,0.275
'7:00.164',0.030,0.250
'7:00.167',0.025,0.240
'7:00.169',-0.005,0.225
'7:00.172',-0.015,0.220
'7:00.175',-0.015,0.215
'7:00.178',-0.005,0.220
'7:00.181',-0.005,0.205
'7:00.183',-0.015,0.195
'7:00.186',-0.040,0.185
'7:00.189',-0.055,0.185
'7:00.192',-0.065,0.185
'7:00.194',-0.075,0.190
'7:00.197',-0.065,0.185
'7:00.200',-0.080,0.175
'7:00.203',-0.095,0.160
'7:00.206',-0.110,0.160
'7:00.208',-0.110,0.175
'7:00.211',-0.080,0.190
'7:00.214',-0.060,0.190
'7:00.217',-0.080,0.190
'7:00.219',-0.090,0.195
'7:00.222',-0.105,0.200
'7:00.225',-0.095,0.220
'7:00.228',-0.095,0.230
'7:00.231',-0.080,0.230
'7:00.233',-0.100,0.215
'7:00.236',-0.120,0.190
'7:00.239',-0.135,0.180
'7:00.242',-0.125,0.215
'7:00.244',-0.105,0.250
'7:00.247',-0.095,0.255
'7:00.250',-0.120,0.230
'7:00.253',-0.135,0.215
'7:00.256',-0.150,0.230
'7:00.258',-0.135,0.235
'7:00.261',-0.110,0.235
'7:00.264',-0.105,0.245
'7:00.267',-0.115,0.220
'7:00.269',-0.130,0.195
'7:00.272',-0.145,0.175
'7:00.275',-0.140,0.170
'7:00.278',-0.135,0.145
'7:00.281',-0.130,0.145
'7:00.283',-0.145,0.145
'7:00.286',-0.165,0.135
'7:00.289',-0.185,0.140
'7:00.292',-0.185,0.150
'7:00.294',-0.175,0.160
'7:00.297',-0.170,0.160
'7:00.300',-0.165,0.145
'7:00.303',-0.180,0.120
'7:00.306',-0.180,0.095
'7:00.308',-0.185,0.100
'7:00.311',-0.170,0.115
'7:00.314',-0.165,0.105
'7:00.317',-0.185,0.110
'7:00.319',-0.200,0.100
'7:00.322',-0.225,0.110
'7:00.325',-0.225,0.120
'7:00.328',-0.215,0.135
'7:00.331',-0.215,0.125
'7:00.333',-0.205,0.120
'7:00.336',-0.220,0.115
'7:00.339',-0.220,0.110
'7:00.342',-0.210,0.130
'7:00.344',-0.190,0.135
'7:00.347',-0.185,0.130
'7:00.350',-0.200,0.130
'7:00.353',-0.210,0.115
'7:00.356',-0.220,0.120
'7:00.358',-0.220,0.125
'7:00.361',-0.220,0.130
'7:00.364',-0.210,0.130
'7:00.367',-0.230,0.130
'7:00.369',-0.250,0.135
'7:00.372',-0.245,0.135
'7:00.375',-0.225,0.140
'7:00.378',-0.215,0.155
'7:00.381',-0.195,0.150
'7:00.383',-0.210,0.140
'7:00.386',-0.225,0.130
'7:00.389',-0.230,0.135
'7:00.392',-0.235,0.155
'7:00.394',-0.210,0.165
'7:00.397',-0.210,0.155
'7:00.400',-0.215,0.155
'7:00.403',-0.220,0.145
'7:00.406',-0.240,0.140
'7:00.408',-0.230,0.150
'7:00.411',-0.225,0.155
'7:00.414',-0.215,0.155
'7:00.417',-0.245,0.140
'7:00.419',-0.235,0.140
'7:00.422',-0.260,0.135
'7:00.425',-0.230,0.140
'7:00.428',-0.230,0.145
'7:00.431',-0.220,0.130
'7:00.433',-0.240,0.120
'7:00.436',-0.245,0.105
'7:00.439',-0.260,0.115
'7:00.442',-0.260,0.110
'7:00.444',-0.240,0.125
'7:00.447',-0.235,0.130
'7:00.450',-0.235,0.095
'7:00.453',-0.260,0.095
'7:00.456',-0.270,0.095
'7:00.458',-0.275,0.095
'7:00.461',-0.265,0.110
'7:00.464',-0.245,0.115
'7:00.467',-0.245,0.095
'7:00.469',-0.255,0.080
'7:00.472',-0.270,0.080
'7:00.475',-0.255,0.095
'7:00.478',-0.240,0.095
'7:00.481',-0.240,0.090
'7:00.483',-0.240,0.080
'7:00.486',-0.245,0.075
'7:00.489',-0.245,0.070
'7:00.492',-0.230,0.075
'7:00.494',-0.230,0.090
'7:00.497',-0.225,0.080
'7:00.500',-0.225,0.070
'7:00.503',-0.240,0.060
'7:00.506',-0.235,0.060
'7:00.508',-0.240,0.070
'7:00.511',-0.200,0.080
'7:00.514',-0.165,0.075
'7:00.517',-0.125,0.065
'7:00.519',-0.055,0.055
'7:00.522',0.115,0.045
'7:00.525',0.450,0.060
'7:00.528',0.855,0.060
'7:00.531',1.130,0.035
'7:00.533',1.105,-0.005
'7:00.536',0.890,-0.065
'7:00.539',0.725,-0.160
'7:00.542',0.665,-0.325
'7:00.544',0.645,-0.585
'7:00.547',0.610,-0.805
'7:00.550',0.515,-0.840
'7:00.553',0.415,-0.740
'7:00.556',0.300,-0.640
'7:00.558',0.180,-0.595
'7:00.561',0.060,-0.555
'7:00.564',-0.055,-0.565
'7:00.567',-0.185,-0.565
'7:00.569',-0.325,-0.550
'7:00.572',-0.455,-0.550
'7:00.575',-0.585,-0.545
'7:00.578',-0.700,-0.540
'7:00.581',-0.850,-0.525
'7:00.583',-1.015,-0.550
'7:00.586',-1.195,-0.580
'7:00.589',-1.360,-0.590
'7:00.592',-1.490,-0.580
'7:00.594',-1.605,-0.570
'7:00.597',-1.695,-0.585
'7:00.600',-1.785,-0.595
'7:00.603',-1.865,-0.600
'7:00.606',-1.925,-0.610
'7:00.608',-1.950,-0.600
'7:00.611',-1.950,-0.600
'7:00.614',-1.930,-0.590
'7:00.617',-1.915,-0.605
'7:00.619',-1.895,-0.630
'7:00.622',-1.860,-0.650
'7:00.625',-1.790,-0.650
'7:00.628',-1.705,-0.645
'7:00.631',-1.580,-0.665
'7:00.633',-1.455,-0.685
'7:00.636',-1.335,-0.705
'7:00.639',-1.210,-0.705
'7:00.642',-1.045,-0.680
'7:00.644',-0.945,-0.645
'7:00.647',-0.885,-0.625
'7:00.650',-0.845,-0.600
'7:00.653',-0.820,-0.585
'7:00.656',-0.765,-0.555
'7:00.658',-0.705,-0.515
'7:00.661',-0.610,-0.470
'7:00.664',-0.535,-0.425
'7:00.667',-0.485,-0.385
'7:00.669',-0.440,-0.355
'7:00.672',-0.380,-0.305
'7:00.675',-0.310,-0.265
'7:00.678',-0.220,-0.220
'7:00.681',-0.140,-0.190
'7:00.683',-0.075,-0.150
'7:00.686',-0.050,-0.100
'7:00.689',-0.025,-0.050
'7:00.692',0.005,-0.010
'7:00.694',0.045,0.025
'7:00.697',0.080,0.060
'7:00.700',0.085,0.095
'7:00.703',0.095,0.120
'7:00.706',0.105,0.155
'7:00.708',0.115,0.175
'7:00.711',0.160,0.205
'7:00.714',0.175,0.220
'7:00.717',0.175,0.210
'7:00.719',0.170,0.210
'7:00.722',0.165,0.225
'7:00.725',0.180,0.220
'7:00.728',0.205,0.230
'7:00.731',0.225,0.240
'7:00.733',0.240,0.235
'7:00.736',0.240,0.240
'7:00.739',0.210,0.235
'7:00.742',0.245,0.235
'7:00.744',0.270,0.240
'7:00.747',0.305,0.245
'7:00.750',0.315,0.255
'7:00.753',0.300,0.255
'7:00.756',0.310,0.265
'7:00.758',0.325,0.290
'7:00.761',0.350,0.305
'7:00.764',0.345,0.305
'7:00.767',0.355,0.295
'7:00.769',0.350,0.295
'7:00.772',0.355,0.295
'7:00.775',0.375,0.315
'7:00.778',0.410,0.335
'7:00.781',0.440,0.335
'7:00.783',0.445,0.320
'7:00.786',0.430,0.320
'7:00.789',0.445,0.330
'7:00.792',0.490,0.345
'7:00.794',0.525,0.360
'7:00.797',0.535,0.365
'7:00.800',0.560,0.355
'7:00.803',0.580,0.345
'7:00.806',0.585,0.350
'7:00.808',0.610,0.365
'7:00.811',0.655,0.380
'7:00.814',0.670,0.375
'7:00.817',0.695,0.380
'7:00.819',0.690,0.385
'7:00.822',0.715,0.390
'7:00.825',0.755,0.405
'7:00.828',0.790,0.415
'7:00.831',0.820,0.410
'7:00.833',0.825,0.410
'7:00.836',0.840,0.420
'7:00.839',0.850,0.420
'7:00.842',0.895,0.440
'7:00.844',0.910,0.450
'7:00.847',0.915,0.450
'7:00.850',0.925,0.455
'7:00.853',0.895,0.445
'7:00.856',0.900,0.460
'7:00.858',0.900,0.480
'7:00.861',0.910,0.490
'7:00.864',0.920,0.410
'7:00.867',0.900,0.475
'7:00.869',0.905,0.430
'7:00.872',0.890,0.460
'7:00.875',0.890,0.480
'7:00.878',0.870,0.500
'7:00.881',0.865,0.480
'7:00.883',0.820,0.500
'7:00.886',0.785,0.505
'7:00.889',0.755,0.505
'7:00.892',0.745,0.455
'7:00.894',0.725,0.520
'7:00.897',0.675,0.515
'7:00.900',0.615,0.500
'7:00.903',0.555,0.495
'7:00.906',0.505,0.495
'7:00.908',0.470,0.495
'7:00.911',0.440,0.505
'7:00.914',0.405,0.490
'7:00.917',0.350,0.460
'7:00.919',0.325,0.440
'7:00.922',0.275,0.435
'7:00.925',0.255,0.370
'7:00.928',0.220,0.420
'7:00.931',0.205,0.405
'7:00.933',0.150,0.395
'7:00.936',0.100,0.355
'7:00.939',0.065,0.365
'7:00.942',0.030,0.300
'7:00.944',0.000,0.280
'7:00.947',-0.015,0.255
'7:00.950',-0.065,0.225
'7:00.953',-0.110,0.190
'7:00.956',-0.130,0.180
'7:00.958',-0.145,0.195
'7:00.961',-0.140,0.210
'7:00.964',-0.155,0.200
'7:00.967',-0.185,0.195
'7:00.969',-0.210,0.180
'7:00.972',-0.225,0.185
'7:00.975',-0.250,0.180
'7:00.978',-0.220,0.180
'7:00.981',-0.220,0.175
'7:00.983',-0.230,0.165
'7:00.986',-0.260,0.155
'7:00.989',-0.275,0.155
'7:00.992',-0.290,0.160
'7:00.994',-0.285,0.175
'7:00.997',-0.245,0.165
'7:01.000',-0.240,0.155
'7:01.003',-0.250,0.145
'7:01.006',-0.265,0.145
'7:01.008',-0.275,0.155
'7:01.011',-0.260,0.180
'7:01.014',-0.245,0.185
'7:01.017',-0.250,0.180
'7:01.019',-0.285,0.180
'7:01.022',-0.310,0.185
'7:01.025',-0.285,0.195
'7:01.028',-0.265,0.195
'7:01.031',-0.255,0.185
'7:01.033',-0.280,0.175
'7:01.036',-0.280,0.160
'7:01.039',-0.285,0.180
'7:01.042',-0.275,0.180
'7:01.044',-0.265,0.190
'7:01.047',-0.260,0.190
'7:01.050',-0.260,0.175
'7:01.053',-0.275,0.155
'7:01.056',-0.300,0.150
'7:01.058',-0.300,0.155
'7:01.061',-0.290,0.165
'7:01.064',-0.280,0.170
'7:01.067',-0.305,0.165
'7:01.069',-0.285,0.155
'7:01.072',-0.290,0.165
'7:01.075',-0.290,0.165
'7:01.078',-0.280,0.170
'7:01.081',-0.275,0.170
'7:01.083',-0.270,0.165
'7:01.086',-0.300,0.165
'7:01.089',-0.325,0.160
'7:01.092',-0.325,0.155
'7:01.094',-0.325,0.160
'7:01.097',-0.335,0.160
'7:01.100',-0.355,0.165
'7:01.103',-0.360,0.165
'7:01.106',-0.370,0.180
'7:01.108',-0.350,0.190
'7:01.111',-0.340,0.200
'7:01.114',-0.315,0.195
'7:01.117',-0.325,0.185
'7:01.119',-0.350,0.170
'7:01.122',-0.335,0.155
'7:01.125',-0.330,0.155
'7:01.128',-0.310,0.145
'7:01.131',-0.315,0.135
'7:01.133',-0.335,0.140
'7:01.136',-0.360,0.135
'7:01.139',-0.360,0.150
'7:01.142',-0.330,0.170
'7:01.144',-0.295,0.185
'7:01.147',-0.275,0.190
'7:01.150',-0.270,0.185
'7:01.153',-0.295,0.190
'7:01.156',-0.310,0.210
'7:01.158',-0.310,0.230
'7:01.161',-0.305,0.240
'7:01.164',-0.290,0.235
'7:01.167',-0.300,0.230
'7:01.169',-0.310,0.230
'7:01.172',-0.295,0.240
'7:01.175',-0.280,0.240
'7:01.178',-0.275,0.240
'7:01.181',-0.255,0.225
'7:01.183',-0.250,0.215
'7:01.186',-0.255,0.215
'7:01.189',-0.270,0.220
'7:01.192',-0.250,0.235
'7:01.194',-0.265,0.225
'7:01.197',-0.270,0.215
'7:01.200',-0.265,0.190
'7:01.203',-0.265,0.200
'7:01.206',-0.255,0.200
'7:01.208',-0.250,0.210
'7:01.211',-0.225,0.205
'7:01.214',-0.220,0.200
'7:01.217',-0.220,0.190
'7:01.219',-0.235,0.180
'7:01.222',-0.255,0.185
'7:01.225',-0.255,0.195
'7:01.228',-0.240,0.190
'7:01.231',-0.235,0.190
'7:01.233',-0.240,0.175
'7:01.236',-0.255,0.175
'7:01.239',-0.260,0.175
'7:01.242',-0.255,0.190
'7:01.244',-0.210,0.190
'7:01.247',-0.220,0.195
'7:01.250',-0.200,0.180
'7:01.253',-0.205,0.180
'7:01.256',-0.205,0.190
'7:01.258',-0.220,0.195
'7:01.261',-0.215,0.190
'7:01.264',-0.205,0.185
'7:01.267',-0.205,0.180
'7:01.269',-0.195,0.165
'7:01.272',-0.195,0.165
'7:01.275',-0.190,0.170
'7:01.278',-0.170,0.185
'7:01.281',-0.165,0.190
'7:01.283',-0.150,0.175
'7:01.286',-0.155,0.170
'7:01.289',-0.180,0.175
'7:01.292',-0.185,0.175
'7:01.294',-0.180,0.190
'7:01.297',-0.140,0.185
'7:01.300',-0.115,0.180
'7:01.303',-0.115,0.175
'7:01.306',-0.120,0.175
'7:01.308',-0.110,0.185
'7:01.311',-0.075,0.185
'7:01.314',-0.045,0.175
'7:01.317',-0.005,0.165
'7:01.319',0.075,0.155
'7:01.322',0.265,0.155
'7:01.325',0.640,0.155
'7:01.328',1.070,0.150
'7:01.331',1.355,0.125
'7:01.333',1.360,0.090
'7:01.336',1.190,0.050
'7:01.339',1.010,-0.010
'7:01.342',0.920,-0.110
'7:01.344',0.850,-0.270
'7:01.347',0.795,-0.450
'7:01.350',0.730,-0.590
'7:01.353',0.645,-0.630
'7:01.356',0.535,-0.550
'7:01.358',0.445,-0.465
'7:01.361',0.350,-0.420
'7:01.364',0.235,-0.430
'7:01.367',0.120,-0.360
'7:01.369',-0.010,-0.400
'7:01.372',-0.145,-0.395
'7:01.375',-0.275,-0.375
'7:01.378',-0.385,-0.385
'7:01.381',-0.515,-0.325
'7:01.383',-0.660,-0.400
'7:01.386',-0.805,-0.410
'7:01.389',-0.965,-0.350
'7:01.392',-1.110,-0.355
'7:01.394',-1.240,-0.345
'7:01.397',-1.330,-0.360
'7:01.400',-1.440,-0.350
'7:01.403',-1.540,-0.350
'7:01.406',-1.630,-0.355
'7:01.408',-1.700,-0.345
'7:01.411',-1.730,-0.340
'7:01.414',-1.765,-0.340
'7:01.417',-1.790,-0.345
'7:01.419',-1.785,-0.365
'7:01.422',-1.765,-0.365
'7:01.425',-1.715,-0.370
'7:01.428',-1.670,-0.370
'7:01.431',-1.615,-0.400
'7:01.433',-1.525,-0.425
'7:01.436',-1.420,-0.440
'7:01.439',-1.290,-0.445
'7:01.442',-1.140,-0.435
'7:01.444',-0.980,-0.420
'7:01.447',-0.860,-0.410
'7:01.450',-0.790,-0.395
'7:01.453',-0.755,-0.380
'7:01.456',-0.740,-0.350
'7:01.458',-0.665,-0.325
'7:01.461',-0.615,-0.300
'7:01.464',-0.560,-0.285
'7:01.467',-0.470,-0.255
'7:01.469',-0.410,-0.230
'7:01.472',-0.355,-0.190
'7:01.475',-0.280,-0.160
'7:01.478',-0.195,-0.115
'7:01.481',-0.130,-0.085
'7:01.483',-0.085,-0.060
'7:01.486',-0.050,-0.030
'7:01.489',-0.005,0.005
'7:01.492',0.040,0.040
'7:01.494',0.110,0.075
'7:01.497',0.140,0.110
'7:01.500',0.150,0.135
'7:01.503',0.145,0.140
'7:01.506',0.155,0.165
'7:01.508',0.170,0.190
'7:01.511',0.215,0.215
'7:01.514',0.225,0.220
'7:01.517',0.245,0.220
'7:01.519',0.240,0.210
'7:01.522',0.245,0.220
'7:01.525',0.260,0.245
'7:01.528',0.275,0.255
'7:01.531',0.285,0.260
'7:01.533',0.280,0.255
'7:01.536',0.295,0.265
'7:01.539',0.290,0.260
'7:01.542',0.290,0.275
'7:01.544',0.295,0.285
'7:01.547',0.300,0.285
'7:01.550',0.300,0.275
'7:01.553',0.310,0.275
'7:01.556',0.320,0.280
'7:01.558',0.335,0.290
'7:01.561',0.345,0.305
'7:01.564',0.360,0.310
'7:01.567',0.355,0.310
'7:01.569',0.355,0.295
'7:01.572',0.365,0.310
'7:01.575',0.395,0.310
'7:01.578',0.415,0.325
'7:01.581',0.435,0.325
'7:01.583',0.445,0.310
'7:01.586',0.455,0.310
'7:01.589',0.455,0.305
'7:01.592',0.485,0.320
'7:01.594',0.505,0.330
'7:01.597',0.530,0.330
'7:01.600',0.535,0.325
'7:01.603',0.530,0.320
'7:01.606',0.535,0.330
'7:01.608',0.570,0.340
'7:01.611',0.600,0.355
'7:01.614',0.635,0.355
'7:01.617',0.660,0.345
'7:01.619',0.650,0.335
'7:01.622',0.675,0.350
'7:01.625',0.700,0.365
'7:01.628',0.740,0.385
'7:01.631',0.770,0.385
'7:01.633',0.795,0.345
'7:01.636',0.810,0.340
'7:01.639',0.825,0.350
'7:01.642',0.855,0.360
'7:01.644',0.885,0.360
'7:01.647',0.910,0.360
'7:01.650',0.900,0.355
'7:01.653',0.900,0.350
'7:01.656',0.920,0.365
'7:01.658',0.935,0.375
'7:01.661',0.960,0.390
'7:01.664',0.970,0.395
'7:01.667',0.960,0.395
'7:01.669',0.965,0.395
'7:01.672',0.980,0.405
'7:01.675',1.000,0.410
'7:01.678',1.015,0.425
'7:01.681',1.005,0.420
'7:01.683',1.010,0.415
'7:01.686',0.980,0.410
'7:01.689',0.955,0.420
'7:01.692',0.925,0.430
'7:01.694',0.920,0.435
'7:01.697',0.905,0.435
'7:01.700',0.880,0.420
'7:01.703',0.840,0.420
'7:01.706',0.800,0.420
'7:01.708',0.770,0.410
'7:01.711',0.750,0.425
'7:01.714',0.740,0.410
'7:01.717',0.700,0.410
'7:01.719',0.660,0.400
'7:01.722',0.615,0.400
'7:01.725',0.575,0.395
'7:01.728',0.535,0.390
'7:01.731',0.510,0.380
'7:01.733',0.475,0.360
'7:01.736',0.425,0.345
'7:01.739',0.390,0.335
'7:01.742',0.360,0.340
'7:01.744',0.325,0.325
'7:01.747',0.295,0.315
'7:01.750',0.255,0.295
'7:01.753',0.210,0.275
'7:01.756',0.160,0.270
'7:01.758',0.140,0.265
'7:01.761',0.135,0.260
'7:01.764',0.095,0.255
'7:01.767',0.060,0.245
'7:01.769',0.025,0.225
'7:01.772',0.010,0.220
'7:01.775',-0.020,0.225
'7:01.778',-0.005,0.230
'7:01.781',0.005,0.220
'7:01.783',-0.005,0.205
'7:01.786',-0.025,0.195
'7:01.789',-0.045,0.190
'7:01.792',-0.065,0.195
'7:01.794',-0.070,0.200
'7:01.797',-0.065,0.195
'7:01.800',-0.075,0.185
'7:01.803',-0.085,0.185
'7:01.806',-0.100,0.185
'7:01.808',-0.100,0.195
'7:01.811',-0.070,0.200
'7:01.814',-0.080,0.200
'7:01.817',-0.075,0.195
'7:01.819',-0.090,0.195
'7:01.822',-0.100,0.195
'7:01.825',-0.090,0.195
'7:01.828',-0.070,0.200
'7:01.831',-0.070,0.200
'7:01.833',-0.090,0.180
'7:01.836',-0.090,0.180
'7:01.839',-0.110,0.180
'7:01.842',-0.100,0.180
'7:01.844',-0.085,0.190
'7:01.847',-0.085,0.185
'7:01.850',-0.095,0.185
'7:01.853',-0.115,0.165
'7:01.856',-0.120,0.165
'7:01.858',-0.135,0.170
'7:01.861',-0.130,0.180
'7:01.864',-0.130,0.175
'7:01.867',-0.135,0.165
'7:01.869',-0.145,0.165
'7:01.872',-0.150,0.170
'7:01.875',-0.140,0.170
'7:01.878',-0.115,0.175
'7:01.881',-0.120,0.170
'7:01.883',-0.120,0.165
'7:01.886',-0.135,0.155
'7:01.889',-0.145,0.165
'7:01.892',-0.145,0.165
'7:01.894',-0.145,0.180
'7:01.897',-0.135,0.175
'7:01.900',-0.160,0.165
'7:01.903',-0.165,0.160
'7:01.906',-0.190,0.160
'7:01.908',-0.185,0.165
'7:01.911',-0.170,0.165
'7:01.914',-0.175,0.165
'7:01.917',-0.170,0.160
'7:01.919',-0.175,0.160
'7:01.922',-0.175,0.160
'7:01.925',-0.165,0.170
'7:01.928',-0.155,0.175
'7:01.931',-0.140,0.175
'7:01.933',-0.145,0.170
'7:01.936',-0.175,0.165
'7:01.939',-0.185,0.165
'7:01.942',-0.185,0.180
'7:01.944',-0.170,0.180
'7:01.947',-0.170,0.185
'7:01.950',-0.175,0.180
'7:01.953',-0.200,0.170
'7:01.956',-0.200,0.175
'7:01.958',-0.190,0.175
'7:01.961',-0.180,0.190
'7:01.964',-0.180,0.185
'7:01.967',-0.175,0.170
'7:01.969',-0.190,0.155
'7:01.972',-0.185,0.160
'7:01.975',-0.190,0.165
'7:01.978',-0.185,0.175
'7:01.981',-0.160,0.165
'7:01.983',-0.180,0.165
'7:01.986',-0.200,0.150
'7:01.989',-0.200,0.145
'7:01.992',-0.205,0.160
'7:01.994',-0.175,0.155
'7:01.997',-0.170,0.150
'7:02.000',-0.195,0.140
'7:02.003',-0.200,0.135
'7:02.006',-0.220,0.135
'7:02.008',-0.200,0.140
'7:02.011',-0.180,0.145
'7:02.014',-0.170,0.140
'7:02.017',-0.175,0.135
'7:02.019',-0.195,0.125
'7:02.022',-0.200,0.125
'7:02.025',-0.210,0.140
'7:02.028',-0.185,0.140
'7:02.031',-0.185,0.135
'7:02.033',-0.210,0.125
'7:02.036',-0.230,0.120
'7:02.039',-0.230,0.115
'7:02.042',-0.230,0.125
'7:02.044',-0.215,0.130
'7:02.047',-0.190,0.115
'7:02.050',-0.220,0.100
'7:02.053',-0.220,0.090
'7:02.056',-0.225,0.100
'7:02.058',-0.185,0.095
'7:02.061',-0.185,0.105
'7:02.064',-0.175,0.105
'7:02.067',-0.180,0.095
'7:02.069',-0.185,0.090
'7:02.072',-0.205,0.090
'7:02.075',-0.215,0.100
'7:02.078',-0.205,0.105
'7:02.081',-0.195,0.090
'7:02.083',-0.205,0.095
'7:02.086',-0.195,0.090
'7:02.089',-0.195,0.095
'7:02.092',-0.195,0.090
'7:02.094',-0.170,0.100
'7:02.097',-0.175,0.090
'7:02.100',-0.170,0.075
'7:02.103',-0.180,0.065
'7:02.106',-0.180,0.060
'7:02.108',-0.180,0.075
'7:02.111',-0.170,0.080
'7:02.114',-0.180,0.080
'7:02.117',-0.190,0.065
'7:02.119',-0.190,0.060
'7:02.122',-0.190,0.060
'7:02.125',-0.175,0.070
'7:02.128',-0.150,0.070
'7:02.131',-0.155,0.065
'7:02.133',-0.150,0.050
'7:02.136',-0.170,0.045
'7:02.139',-0.180,0.040
'7:02.142',-0.160,0.035
'7:02.144',-0.165,0.035
'7:02.147',-0.150,0.045
'7:02.150',-0.160,0.020
'7:02.153',-0.160,0.010
'7:02.156',-0.155,0.015
'7:02.158',-0.130,0.020
'7:02.161',-0.075,0.030
'7:02.164',-0.035,0.020
'7:02.167',0.035,0.015
'7:02.169',0.180,0.005
'7:02.172',0.440,0.005
'7:02.175',0.820,0.020
'7:02.178',1.140,0.010
'7:02.181',1.260,-0.010
'7:02.183',1.185,-0.035
'7:02.186',1.025,-0.055
'7:02.189',0.900,-0.100
'7:02.192',0.830,-0.165
'7:02.194',0.805,-0.270
'7:02.197',0.780,-0.430
'7:02.200',0.715,-0.620
'7:02.203',0.620,-0.740
'7:02.206',0.555,-0.740
'7:02.208',0.495,-0.645
'7:02.211',0.405,-0.580
'7:02.214',0.320,-0.550
'7:02.217',0.240,-0.535
'7:02.219',0.130,-0.525
'7:02.222',0.025,-0.510
'7:02.225',-0.055,-0.485
'7:02.228',-0.140,-0.460
'7:02.231',-0.270,-0.460
'7:02.233',-0.405,-0.460
'7:02.236',-0.560,-0.460
'7:02.239',-0.700,-0.470
'7:02.242',-0.835,-0.465
'7:02.244',-0.975,-0.460
'7:02.247',-1.100,-0.495
'7:02.250',-1.225,-0.480
'7:02.253',-1.330,-0.480
'7:02.256',-1.420,-0.485
'7:02.258',-1.505,-0.470
'7:02.261',-1.560,-0.465
'7:02.264',-1.610,-0.460
'7:02.267',-1.685,-0.465
'7:02.269',-1.745,-0.485
'7:02.272',-1.775,-0.485
'7:02.275',-1.775,-0.470
'7:02.278',-1.785,-0.470
'7:02.281',-1.775,-0.470
'7:02.283',-1.760,-0.485
'7:02.286',-1.740,-0.505
'7:02.289',-1.715,-0.515
'7:02.292',-1.680,-0.520
'7:02.294',-1.615,-0.530
'7:02.297',-1.530,-0.550
'7:02.300',-1.435,-0.570
'7:02.303',-1.310,-0.595
'7:02.306',-1.195,-0.595
'7:02.308',-1.070,-0.590
'7:02.311',-0.945,-0.575
'7:02.314',-0.870,-0.565
'7:02.317',-0.845,-0.550
'7:02.319',-0.820,-0.535
'7:02.322',-0.805,-0.525
'7:02.325',-0.780,-0.495
'7:02.328',-0.715,-0.480
'7:02.331',-0.670,-0.460
'7:02.333',-0.605,-0.450
'7:02.336',-0.560,-0.430
'7:02.339',-0.515,-0.410
'7:02.342',-0.455,-0.375
'7:02.344',-0.375,-0.345
'7:02.347',-0.320,-0.320
'7:02.350',-0.250,-0.295
'7:02.353',-0.205,-0.275
'7:02.356',-0.155,-0.235
'7:02.358',-0.110,-0.195
'7:02.361',-0.040,-0.160
'7:02.364',0.005,-0.130
'7:02.367',0.050,-0.110
'7:02.369',0.065,-0.085
'7:02.372',0.080,-0.060
'7:02.375',0.095,-0.020
'7:02.378',0.135,0.015
'7:02.381',0.140,0.030
'7:02.383',0.160,0.040
'7:02.386',0.165,0.050
'7:02.389',0.150,0.070
'7:02.392',0.175,0.090
'7:02.394',0.195,0.115
'7:02.397',0.195,0.105
'7:02.400',0.210,0.120
'7:02.403',0.200,0.115
'7:02.406',0.200,0.120
'7:02.408',0.210,0.135
'7:02.411',0.220,0.150
'7:02.414',0.230,0.150
'7:02.417',0.225,0.150
'7:02.419',0.220,0.150
'7:02.422',0.215,0.160
'7:02.425',0.250,0.165
'7:02.428',0.265,0.175
'7:02.431',0.285,0.175
'7:02.433',0.290,0.175
'7:02.436',0.290,0.170
'7:02.439',0.295,0.175
'7:02.442',0.300,0.190
'7:02.444',0.335,0.200
'7:02.447',0.350,0.195
'7:02.450',0.355,0.190
'7:02.453',0.345,0.180
'7:02.456',0.355,0.180
'7:02.458',0.380,0.195
'7:02.461',0.415,0.205
'7:02.464',0.415,0.200
'7:02.467',0.415,0.200
'7:02.469',0.425,0.190
'7:02.472',0.430,0.195
'7:02.475',0.440,0.205
'7:02.478',0.470,0.210
'7:02.481',0.495,0.210
'7:02.483',0.495,0.205
'7:02.486',0.490,0.195
'7:02.489',0.500,0.200
'7:02.492',0.505,0.205
'7:02.494',0.545,0.220
'7:02.497',0.570,0.210
'7:02.500',0.600,0.220
'7:02.503',0.615,0.215
'7:02.506',0.620,0.220
'7:02.508',0.650,0.230
'7:02.511',0.675,0.245
'7:02.514',0.700,0.245
'7:02.517',0.695,0.245
'7:02.519',0.710,0.240
'7:02.522',0.720,0.255
'7:02.525',0.735,0.265
'7:02.528',0.775,0.280
'7:02.531',0.790,0.275
'7:02.533',0.795,0.280
'7:02.536',0.785,0.275
'7:02.539',0.815,0.290
'7:02.542',0.845,0.310
'7:02.544',0.870,0.320
'7:02.547',0.880,0.310
'7:02.550',0.885,0.315
'7:02.553',0.890,0.325
'7:02.556',0.880,0.325
'7:02.558',0.900,0.335
'7:02.561',0.905,0.350
'7:02.564',0.905,0.350
'7:02.567',0.910,0.345
'7:02.569',0.905,0.335
'7:02.572',0.905,0.350
'7:02.575',0.905,0.370
'7:02.578',0.905,0.365
'7:02.581',0.905,0.365
'7:02.583',0.860,0.365
'7:02.586',0.845,0.360
'7:02.589',0.825,0.360
'7:02.592',0.815,0.370
'7:02.594',0.795,0.375
'7:02.597',0.785,0.380
'7:02.600',0.755,0.370
'7:02.603',0.715,0.350
'7:02.606',0.680,0.355
'7:02.608',0.645,0.355
'7:02.611',0.620,0.355
'7:02.614',0.595,0.340
'7:02.617',0.560,0.330
'7:02.619',0.500,0.310
'7:02.622',0.455,0.295
'7:02.625',0.420,0.305
'7:02.628',0.405,0.300
'7:02.631',0.370,0.285
'7:02.633',0.330,0.270
'7:02.636',0.280,0.255
'7:02.639',0.250,0.245
'7:02.642',0.230,0.245
'7:02.644',0.200,0.245
'7:02.647',0.195,0.230
'7:02.650',0.160,0.215
'7:02.653',0.115,0.200
'7:02.656',0.080,0.195
'7:02.658',0.075,0.190
'7:02.661',0.050,0.185
'7:02.664',0.070,0.180
'7:02.667',0.045,0.170
'7:02.669',0.010,0.165
'7:02.672',-0.015,0.160
'7:02.675',-0.020,0.160
'7:02.678',-0.015,0.160
'7:02.681',-0.020,0.150
'7:02.683',-0.035,0.140
'7:02.686',-0.050,0.145
'7:02.689',-0.055,0.130
'7:02.692',-0.055,0.145
'7:02.694',-0.040,0.150
'7:02.697',-0.055,0.145
'7:02.700',-0.065,0.135
'7:02.703',-0.070,0.125
'7:02.706',-0.085,0.135
'7:02.708',-0.080,0.135
'7:02.711',-0.070,0.155
'7:02.714',-0.055,0.140
'7:02.717',-0.070,0.135
'7:02.719',-0.075,0.120
'7:02.722',-0.090,0.125
'7:02.725',-0.090,0.125
'7:02.728',-0.065,0.130
'7:02.731',-0.075,0.130
'7:02.733',-0.075,0.120
'7:02.736',-0.100,0.115
'7:02.739',-0.110,0.115
'7:02.742',-0.105,0.120
'7:02.744',-0.090,0.125
'7:02.747',-0.080,0.125
'7:02.750',-0.080,0.120
'7:02.753',-0.100,0.115
'7:02.756',-0.100,0.115
'7:02.758',-0.080,0.125
'7:02.761',-0.080,0.130
'7:02.764',-0.070,0.125
'7:02.767',-0.080,0.115
'7:02.769',-0.085,0.105
'7:02.772',-0.105,0.105
'7:02.775',-0.090,0.115
'7:02.778',-0.100,0.120
'7:02.781',-0.100,0.115
'7:02.783',-0.090,0.120
'7:02.786',-0.120,0.115
'7:02.789',-0.115,0.115
'7:02.792',-0.095,0.130
'7:02.794',-0.070,0.140
'7:02.797',-0.055,0.130
'7:02.800',-0.070,0.125
'7:02.803',-0.095,0.120
'7:02.806',-0.095,0.125
'7:02.808',-0.110,0.140
'7:02.811',-0.105,0.140
'7:02.814',-0.090,0.135
'7:02.817',-0.095,0.120
'7:02.819',-0.110,0.130
'7:02.822',-0.130,0.120
'7:02.825',-0.130,0.135
'7:02.828',-0.100,0.130
'7:02.831',-0.085,0.130
'7:02.833',-0.080,0.120
'7:02.836',-0.110,0.110
'7:02.839',-0.125,0.120
'7:02.842',-0.115,0.115
'7:02.844',-0.085,0.120
'7:02.847',-0.085,0.115
'7:02.850',-0.095,0.110
'7:02.853',-0.120,0.110
'7:02.856',-0.125,0.100
'7:02.858',-0.130,0.115
'7:02.861',-0.110,0.120
'7:02.864',-0.110,0.115
'7:02.867',-0.115,0.110
'7:02.869',-0.120,0.100
'7:02.872',-0.125,0.095
'7:02.875',-0.135,0.105
'7:02.878',-0.125,0.105
'7:02.881',-0.115,0.105
'7:02.883',-0.130,0.095
'7:02.886',-0.140,0.080
'7:02.889',-0.130,0.080
'7:02.892',-0.135,0.090
'7:02.894',-0.135,0.095
'7:02.897',-0.110,0.085
'7:02.900',-0.130,0.085
'7:02.903',-0.130,0.075
'7:02.906',-0.140,0.085
'7:02.908',-0.135,0.080
'7:02.911',-0.130,0.095
'7:02.914',-0.125,0.085
'7:02.917',-0.160,0.080
'7:02.919',-0.170,0.075
'7:02.922',-0.165,0.080
'7:02.925',-0.145,0.090
'7:02.928',-0.130,0.100
'7:02.931',-0.120,0.095
'7:02.933',-0.135,0.085
'7:02.936',-0.125,0.080
'7:02.939',-0.135,0.075
'7:02.942',-0.125,0.085
'7:02.944',-0.115,0.090
'7:02.947',-0.105,0.085
'7:02.950',-0.115,0.085
'7:02.953',-0.130,0.080
'7:02.956',-0.130,0.085
'7:02.958',-0.135,0.095
'7:02.961',-0.130,0.105
'7:02.964',-0.115,0.105
'7:02.967',-0.120,0.095
'7:02.969',-0.115,0.090
'7:02.972',-0.130,0.095
'7:02.975',-0.115,0.105
'7:02.978',-0.115,0.115
'7:02.981',-0.090,0.110
'7:02.983',-0.095,0.100
'7:02.986',-0.100,0.095
'7:02.989',-0.100,0.095
'7:02.992',-0.080,0.100
'7:02.994',-0.080,0.100
'7:02.997',-0.065,0.105
'7:03.000',-0.080,0.085
'7:03.003',-0.090,0.085
'7:03.006',-0.100,0.080
'7:03.008',-0.100,0.085
'7:03.011',-0.080,0.095
'7:03.014',-0.080,0.090
'7:03.017',-0.085,0.080
'7:03.019',-0.115,0.065
'7:03.022',-0.115,0.065
'7:03.025',-0.115,0.080
'7:03.028',-0.100,0.085
'7:03.031',-0.075,0.080
'7:03.033',-0.075,0.075
'7:03.036',-0.090,0.065
'7:03.039',-0.095,0.065
'7:03.042',-0.075,0.070
'7:03.044',-0.055,0.080
'7:03.047',-0.050,0.080
'7:03.050',-0.065,0.065
'7:03.053',-0.085,0.060
'7:03.056',-0.090,0.070
'7:03.058',-0.080,0.065
'7:03.061',-0.070,0.070
'7:03.064',-0.050,0.065
'7:03.067',-0.070,0.060
'7:03.069',-0.070,0.050
'7:03.072',-0.070,0.050
'7:03.075',-0.065,0.060
'7:03.078',-0.030,0.070
'7:03.081',-0.015,0.065
'7:03.083',0.005,0.055
'7:03.086',0.035,0.045
'7:03.089',0.160,0.040
'7:03.092',0.425,0.050
'7:03.094',0.780,0.055
'7:03.097',1.120,0.045
'7:03.100',1.285,0.035
'7:03.103',1.235,0.005
'7:03.106',1.070,-0.010
'7:03.108',0.945,-0.050
'7:03.111',0.870,-0.115
'7:03.114',0.830,-0.260
'7:03.117',0.770,-0.445
'7:03.119',0.680,-0.600
'7:03.122',0.600,-0.625
'7:03.125',0.530,-0.565
'7:03.128',0.475,-0.500
'7:03.131',0.395,-0.460
'7:03.133',0.285,-0.445
'7:03.136',0.170,-0.440
'7:03.139',0.060,-0.430
'7:03.142',-0.025,-0.410
'7:03.144',-0.115,-0.400
'7:03.147',-0.235,-0.395
'7:03.150',-0.360,-0.410
'7:03.153',-0.495,-0.410
'7:03.156',-0.615,-0.420
'7:03.158',-0.735,-0.425
'7:03.161',-0.870,-0.425
'7:03.164',-0.985,-0.435
'7:03.167',-1.130,-0.445
'7:03.169',-1.245,-0.465
'7:03.172',-1.345,-0.460
'7:03.175',-1.440,-0.455
'7:03.178',-1.510,-0.445
'7:03.181',-1.580,-0.445
'7:03.183',-1.650,-0.465
'7:03.186',-1.730,-0.485
'7:03.189',-1.785,-0.480
'7:03.192',-1.810,-0.475
'7:03.194',-1.820,-0.475
'7:03.197',-1.820,-0.475
'7:03.200',-1.830,-0.490
'7:03.203',-1.815,-0.495
'7:03.206',-1.785,-0.515
'7:03.208',-1.745,-0.515
'7:03.211',-1.695,-0.515
'7:03.214',-1.650,-0.530
'7:03.217',-1.600,-0.545
'7:03.219',-1.525,-0.580
'7:03.222',-1.445,-0.600
'7:03.225',-1.320,-0.600
'7:03.228',-1.170,-0.600
'7:03.231',-1.015,-0.610
'7:03.233',-0.900,-0.595
'7:03.236',-0.830,-0.585
'7:03.239',-0.790,-0.555
'7:03.242',-0.765,-0.535
'7:03.244',-0.725,-0.510
'7:03.247',-0.675,-0.490
'7:03.250',-0.610,-0.485
'7:03.253',-0.575,-0.465
'7:03.256',-0.535,-0.425
'7:03.258',-0.450,-0.390
'7:03.261',-0.360,-0.360
'7:03.264',-0.290,-0.330
'7:03.267',-0.230,-0.305
'7:03.269',-0.175,-0.275
'7:03.272',-0.120,-0.235
'7:03.275',-0.050,-0.195
'7:03.278',0.015,-0.150
'7:03.281',0.075,-0.130
'7:03.283',0.105,-0.095
'7:03.286',0.145,-0.060
'7:03.289',0.165,-0.030
'7:03.292',0.210,0.005
'7:03.294',0.240,0.045
'7:03.297',0.255,0.055
'7:03.300',0.265,0.065
'7:03.303',0.265,0.075
'7:03.306',0.280,0.090
'7:03.308',0.280,0.110
'7:03.311',0.295,0.125
'7:03.314',0.315,0.130
'7:03.317',0.300,0.130
'7:03.319',0.310,0.140
'7:03.322',0.305,0.145
'7:03.325',0.320,0.160
'7:03.328',0.335,0.175
'7:03.331',0.335,0.175
'7:03.333',0.335,0.170
'7:03.336',0.340,0.170
'7:03.339',0.335,0.180
'7:03.342',0.355,0.195
'7:03.344',0.380,0.195
'7:03.347',0.375,0.195
'7:03.350',0.380,0.200
'7:03.353',0.370,0.195
'7:03.356',0.360,0.205
'7:03.358',0.375,0.220
'7:03.361',0.405,0.230
'7:03.364',0.405,0.225
'7:03.367',0.405,0.220
'7:03.369',0.415,0.215
'7:03.372',0.420,0.215
'7:03.375',0.440,0.220
'7:03.378',0.470,0.230
'7:03.381',0.485,0.230
'7:03.383',0.490,0.225
'7:03.386',0.465,0.225
'7:03.389',0.495,0.240
'7:03.392',0.510,0.255
'7:03.394',0.545,0.270
'7:03.397',0.565,0.260
'7:03.400',0.560,0.255
'7:03.403',0.545,0.250
'7:03.406',0.570,0.260
'7:03.408',0.590,0.265
'7:03.411',0.615,0.270
'7:03.414',0.630,0.275
'7:03.417',0.655,0.270
'7:03.419',0.665,0.270
'7:03.422',0.655,0.275
'7:03.425',0.675,0.285
'7:03.428',0.700,0.295
'7:03.431',0.720,0.300
'7:03.433',0.725,0.285
'7:03.436',0.735,0.285
'7:03.439',0.740,0.290
'7:03.442',0.785,0.305
'7:03.444',0.815,0.315
'7:03.447',0.845,0.315
'7:03.450',0.855,0.310
'7:03.453',0.855,0.310
'7:03.456',0.865,0.315
'7:03.458',0.900,0.335
'7:03.461',0.930,0.330
'7:03.464',0.950,0.335
'7:03.467',0.945,0.330
'7:03.469',0.940,0.325
'7:03.472',0.960,0.340
'7:03.475',0.970,0.355
'7:03.478',1.000,0.370
'7:03.481',1.005,0.370
'7:03.483',0.990,0.360
'7:03.486',0.990,0.360
'7:03.489',0.985,0.365
'7:03.492',0.990,0.385
'7:03.494',0.990,0.400
'7:03.497',0.990,0.400
'7:03.500',0.975,0.400
'7:03.503',0.960,0.395
'7:03.506',0.955,0.410
'7:03.508',0.935,0.420
'7:03.511',0.935,0.435
'7:03.514',0.900,0.435
'7:03.517',0.855,0.435
'7:03.519',0.825,0.420
'7:03.522',0.800,0.420
'7:03.525',0.760,0.420
'7:03.528',0.750,0.425
'7:03.531',0.705,0.420
'7:03.533',0.690,0.410
'7:03.536',0.645,0.405
'7:03.539',0.600,0.400
'7:03.542',0.570,0.395
'7:03.544',0.560,0.390
'7:03.547',0.550,0.385
'7:03.550',0.505,0.365
'7:03.553',0.460,0.350
'7:03.556',0.420,0.340
'7:03.558',0.385,0.340
'7:03.561',0.365,0.330
'7:03.564',0.355,0.320
'7:03.567',0.315,0.295
'7:03.569',0.270,0.285
'7:03.572',0.235,0.270
'7:03.575',0.215,0.270
'7:03.578',0.205,0.260
'7:03.581',0.200,0.245
'7:03.583',0.170,0.220
'7:03.586',0.140,0.200
'7:03.589',0.110,0.195
'7:03.592',0.095,0.190
'7:03.594',0.095,0.185
'7:03.597',0.075,0.170
'7:03.600',0.060,0.150
'7:03.603',0.055,0.140
'7:03.606',0.020,0.135
'7:03.608',0.025,0.145
'7:03.611',0.030,0.145
'7:03.614',0.050,0.140
'7:03.617',0.030,0.125
'7:03.619',-0.010,0.120
'7:03.622',-0.025,0.115
'7:03.625',-0.010,0.125
'7:03.628',-0.005,0.130
'7:03.631',0.005,0.120
'7:03.633',-0.020,0.115
'7:03.636',-0.030,0.115
'7:03.639',-0.045,0.115
'7:03.642',-0.040,0.125
'7:03.644',-0.040,0.135
'7:03.647',-0.035,0.125
'7:03.650',-0.040,0.125
'7:03.653',-0.050,0.115
'7:03.656',-0.055,0.120
'7:03.658',-0.025,0.125
'7:03.661',-0.035,0.140
'7:03.664',-0.025,0.140
'7:03.667',-0.035,0.135
'7:03.669',-0.055,0.135
'7:03.672',-0.065,0.140
'7:03.675',-0.040,0.155
'7:03.678',-0.035,0.160
'7:03.681',-0.035,0.155
'7:03.683',-0.030,0.150
'7:03.686',-0.030,0.145
'7:03.689',-0.040,0.150
'7:03.692',-0.035,0.165
'7:03.694',-0.025,0.165
'7:03.697',-0.015,0.160
'7:03.700',-0.025,0.150
'7:03.703',-0.040,0.145
'7:03.706',-0.030,0.155
'7:03.708',-0.025,0.160
'7:03.711',-0.020,0.165
'7:03.714',-0.020,0.155
'7:03.717',-0.030,0.150
'7:03.719',-0.040,0.140
'7:03.722',-0.045,0.135
'7:03.725',-0.050,0.130
'7:03.728',-0.035,0.140
'7:03.731',-0.030,0.130
'7:03.733',-0.045,0.125
'7:03.736',-0.065,0.115
'7:03.739',-0.060,0.120
'7:03.742',-0.070,0.120
'7:03.744',-0.045,0.130
'7:03.747',-0.040,0.120
'7:03.750',-0.055,0.110
'7:03.753',-0.070,0.100
'7:03.756',-0.085,0.100
'7:03.758',-0.085,0.100
'7:03.761',-0.080,0.115
'7:03.764',-0.085,0.110
'7:03.767',-0.105,0.105
'7:03.769',-0.120,0.090
'7:03.772',-0.135,0.100
'7:03.775',-0.140,0.105
'7:03.778',-0.110,0.125
'7:03.781',-0.110,0.115
'7:03.783',-0.125,0.115
'7:03.786',-0.130,0.105
'7:03.789',-0.135,0.110
'7:03.792',-0.135,0.120
'7:03.794',-0.100,0.130
'7:03.797',-0.100,0.120
'7:03.800',-0.100,0.110
'7:03.803',-0.130,0.105
'7:03.806',-0.125,0.110
'7:03.808',-0.120,0.115
'7:03.811',-0.105,0.135
'7:03.814',-0.100,0.130
'7:03.817',-0.115,0.125
'7:03.819',-0.125,0.130
'7:03.822',-0.125,0.130
'7:03.825',-0.115,0.140
'7:03.828',-0.095,0.150
'7:03.831',-0.090,0.145
'7:03.833',-0.110,0.135
'7:03.836',-0.100,0.125
'7:03.839',-0.110,0.125
'7:03.842',-0.100,0.135
'7:03.844',-0.095,0.145
'7:03.847',-0.085,0.145
'7:03.850',-0.100,0.135
'7:03.853',-0.100,0.125
'7:03.856',-0.100,0.125
'7:03.858',-0.090,0.125
'7:03.861',-0.090,0.130
'7:03.864',-0.065,0.120
'7:03.867',-0.085,0.115
'7:03.869',-0.110,0.100
'7:03.872',-0.110,0.105
'7:03.875',-0.120,0.100
'7:03.878',-0.105,0.120
'7:03.881',-0.100,0.100
'7:03.883',-0.100,0.080
'7:03.886',-0.110,0.065
'7:03.889',-0.125,0.065
'7:03.892',-0.125,0.065
'7:03.894',-0.125,0.075
'7:03.897',-0.135,0.075
'7:03.900',-0.150,0.070
'7:03.903',-0.170,0.075
'7:03.906',-0.175,0.080
'7:03.908',-0.150,0.085
'7:03.911',-0.140,0.085
'7:03.914',-0.125,0.085
'7:03.917',-0.140,0.075
'7:03.919',-0.135,0.075
'7:03.922',-0.130,0.075
'7:03.925',-0.120,0.105
'7:03.928',-0.100,0.130
'7:03.931',-0.080,0.135
'7:03.933',-0.100,0.135
'7:03.936',-0.105,0.125
'7:03.939',-0.105,0.110
'7:03.942',-0.090,0.095
'7:03.944',-0.085,0.085
'7:03.947',-0.080,0.080
'7:03.950',-0.090,0.080
'7:03.953',-0.105,0.080
'7:03.956',-0.110,0.090
'7:03.958',-0.080,0.105
'7:03.961',-0.050,0.110
'7:03.964',-0.020,0.095
'7:03.967',0.005,0.075
'7:03.969',0.100,0.060
'7:03.972',0.335,0.075
'7:03.975',0.700,0.080
'7:03.978',1.090,0.090
'7:03.981',1.290,0.070
'7:03.983',1.220,0.040
'7:03.986',1.025,0.005
'7:03.989',0.875,-0.055
'7:03.992',0.790,-0.150
'7:03.994',0.760,-0.310
'7:03.997',0.700,-0.480
'7:04.000',0.600,-0.560
'7:04.003',0.485,-0.525
'7:04.006',0.375,-0.455
'7:04.008',0.270,-0.415
'7:04.011',0.170,-0.400
'7:04.014',0.050,-0.395
'7:04.017',-0.080,-0.395
'7:04.019',-0.220,-0.385
'7:04.022',-0.340,-0.385
'7:04.025',-0.470,-0.380
'7:04.028',-0.595,-0.375
'7:04.031',-0.715,-0.390
'7:04.033',-0.865,-0.405
'7:04.036',-1.035,-0.420
'7:04.039',-1.205,-0.425
'7:04.042',-1.355,-0.425
'7:04.044',-1.485,-0.415
'7:04.047',-1.575,-0.420
'7:04.050',-1.650,-0.425
'7:04.053',-1.750,-0.440
'7:04.056',-1.815,-0.435
'7:04.058',-1.850,-0.425
'7:04.061',-1.860,-0.425
'7:04.064',-1.870,-0.435
'7:04.067',-1.885,-0.430
'7:04.069',-1.880,-0.445
'7:04.072',-1.865,-0.445
'7:04.075',-1.825,-0.440
'7:04.078',-1.745,-0.450
'7:04.081',-1.675,-0.460
'7:04.083',-1.600,-0.480
'7:04.086',-1.505,-0.490
'7:04.089',-1.390,-0.490
'7:04.092',-1.245,-0.495
'7:04.094',-1.085,-0.480
'7:04.097',-0.950,-0.485
'7:04.100',-0.860,-0.650
'7:04.103',-0.810,-0.620
'7:04.106',-0.765,-0.425
'7:04.108',-0.725,-0.550
'7:04.111',-0.650,-0.515
'7:04.114',-0.580,-0.500
'7:04.117',-0.520,-0.350
'7:04.119',-0.450,-0.335
'7:04.122',-0.380,-0.300
'7:04.125',-0.300,-0.265
'7:04.128',-0.205,-0.225
'7:04.131',-0.115,-0.280
'7:04.133',-0.055,-0.235
'7:04.136',-0.005,-0.190
'7:04.139',0.035,-0.100
'7:04.142',0.095,-0.055
'7:04.144',0.130,-0.020
'7:04.147',0.170,0.005
'7:04.150',0.200,0.030
'7:04.153',0.210,0.035
'7:04.156',0.225,0.045
'7:04.158',0.240,0.060
'7:04.161',0.275,0.085
'7:04.164',0.300,0.095
'7:04.167',0.310,0.110
'7:04.169',0.320,0.115
'7:04.172',0.315,0.140
'7:04.175',0.335,0.155
'7:04.178',0.350,0.195
'7:04.181',0.345,0.175
'7:04.183',0.335,0.160
'7:04.186',0.330,0.160
'7:04.189',0.355,0.195
'7:04.192',0.370,0.225
'7:04.194',0.385,0.265
'7:04.197',0.400,0.285
'7:04.200',0.405,0.285
'7:04.203',0.400,0.275
'7:04.206',0.410,0.255
'7:04.208',0.435,0.175
'7:04.211',0.465,0.245
'7:04.214',0.470,0.275
'7:04.217',0.470,0.300
'7:04.219',0.465,0.300
'7:04.222',0.470,0.300
'7:04.225',0.465,0.280
'7:04.228',0.495,0.295
'7:04.231',0.490,0.285
'7:04.233',0.515,0.285
'7:04.236',0.505,0.305
'7:04.239',0.500,0.315
'7:04.242',0.525,0.310
'7:04.244',0.575,0.330
'7:04.247',0.595,0.335
'7:04.250',0.595,0.335
'7:04.253',0.600,0.330
'7:04.256',0.605,0.345
'7:04.258',0.630,0.355
'7:04.261',0.670,0.380
'7:04.264',0.690,0.370
'7:04.267',0.705,0.355
'7:04.269',0.715,0.355
'7:04.272',0.750,0.375
'7:04.275',0.775,0.390
'7:04.278',0.815,0.410
'7:04.281',0.845,0.395
'7:04.283',0.865,0.385
'7:04.286',0.870,0.370
'7:04.289',0.885,0.385
'7:04.292',0.910,0.395
'7:04.294',0.960,0.415
'7:04.297',0.980,0.290
'7:04.300',0.990,0.290
'7:04.303',0.980,0.410
'7:04.306',0.990,0.425
'7:04.308',1.005,0.440
'7:04.311',1.025,0.465
'7:04.314',1.035,0.475
'7:04.317',1.035,0.470
'7:04.319',1.045,0.465
'7:04.322',1.030,0.475
'7:04.325',1.045,0.485
'7:04.328',1.045,0.500
'7:04.331',1.035,0.505
'7:04.333',1.020,0.360
'7:04.336',1.020,0.355
'7:04.339',0.995,0.365
'7:04.342',0.990,0.375
'7:04.344',0.980,0.380
'7:04.347',0.955,0.370
'7:04.350',0.910,0.370
'7:04.353',0.880,0.365
'7:04.356',0.845,0.380
'7:04.358',0.820,0.380
'7:04.361',0.790,0.380
'7:04.364',0.750,0.370
'7:04.367',0.705,0.360
'7:04.369',0.645,0.360
'7:04.372',0.580,0.360
'7:04.375',0.550,0.365
'7:04.378',0.525,0.390
'7:04.381',0.490,0.395
'7:04.383',0.420,0.385
'7:04.386',0.360,0.365
'7:04.389',0.320,0.340
'7:04.392',0.300,0.315
'7:04.394',0.290,0.290
'7:04.397',0.260,0.270
'7:04.400',0.220,0.260
'7:04.403',0.180,0.275
'7:04.406',0.145,0.305
'7:04.408',0.115,0.310
'7:04.411',0.125,0.275
'7:04.414',0.095,0.220
'7:04.417',0.060,0.185
'7:04.419',0.035,0.170
'7:04.422',0.010,0.175
'7:04.425',0.005,0.185
'7:04.428',0.010,0.200
'7:04.431',0.015,0.215
'7:04.433',0.015,0.235
'7:04.436',-0.010,0.245
'7:04.439',-0.020,0.245
'7:04.442',-0.025,0.240
'7:04.444',-0.020,0.205
'7:04.447',-0.020,0.165
'7:04.450',-0.020,0.140
'7:04.453',-0.025,0.135
'7:04.456',-0.030,0.155
'7:04.458',0.000,0.185
'7:04.461',0.005,0.200
'7:04.464',-0.005,0.205
'7:04.467',-0.020,0.190
'7:04.469',-0.055,0.160
'7:04.472',-0.065,0.135
'7:04.475',-0.050,0.115
'7:04.478',-0.045,0.105
'7:04.481',-0.045,0.100
'7:04.483',-0.060,0.110
'7:04.486',-0.080,0.110
'7:04.489',-0.095,0.115
'7:04.492',-0.085,0.130
'7:04.494',-0.070,0.145
'7:04.497',-0.075,0.140
'7:04.500',-0.090,0.135
'7:04.503',-0.100,0.135
'7:04.506',-0.110,0.140
'7:04.508',-0.095,0.145
'7:04.511',-0.090,0.155
'7:04.514',-0.090,0.150
'7:04.517',-0.105,0.145
'7:04.519',-0.115,0.130
'7:04.522',-0.135,0.135
'7:04.525',-0.115,0.140
'7:04.528',-0.120,0.150
'7:04.531',-0.100,0.140
'7:04.533',-0.105,0.130
'7:04.536',-0.130,0.130
'7:04.539',-0.145,0.130
'7:04.542',-0.140,0.140
'7:04.544',-0.130,0.140
'7:04.547',-0.120,0.135
'7:04.550',-0.145,0.115
'7:04.553',-0.155,0.105
'7:04.556',-0.160,0.105
'7:04.558',-0.160,0.120
'7:04.561',-0.140,0.130
'7:04.564',-0.130,0.135
'7:04.567',-0.145,0.125
'7:04.569',-0.155,0.120
'7:04.572',-0.170,0.130
'7:04.575',-0.165,0.140
'7:04.578',-0.175,0.160
'7:04.581',-0.165,0.165
'7:04.583',-0.170,0.175
'7:04.586',-0.195,0.185
'7:04.589',-0.185,0.190
'7:04.592',-0.170,0.200
'7:04.594',-0.165,0.200
'7:04.597',-0.150,0.190
'7:04.600',-0.150,0.175
'7:04.603',-0.155,0.160
'7:04.606',-0.170,0.170
'7:04.608',-0.170,0.175
'7:04.611',-0.145,0.185
'7:04.614',-0.150,0.180
'7:04.617',-0.155,0.185
'7:04.619',-0.175,0.170
'7:04.622',-0.170,0.175
'7:04.625',-0.160,0.190
'7:04.628',-0.150,0.200
'7:04.631',-0.145,0.200
'7:04.633',-0.170,0.200
'7:04.636',-0.170,0.200
'7:04.639',-0.175,0.200
'7:04.642',-0.160,0.205
'7:04.644',-0.150,0.210
'7:04.647',-0.160,0.200
'7:04.650',-0.180,0.205
'7:04.653',-0.190,0.205
'7:04.656',-0.195,0.210
'7:04.658',-0.190,0.220
'7:04.661',-0.190,0.225
'7:04.664',-0.170,0.215
'7:04.667',-0.190,0.205
'7:04.669',-0.205,0.190
'7:04.672',-0.200,0.185
'7:04.675',-0.200,0.190
'7:04.678',-0.185,0.190
'7:04.681',-0.195,0.195
'7:04.683',-0.210,0.195
'7:04.686',-0.205,0.190
'7:04.689',-0.215,0.190
'7:04.692',-0.210,0.195
'7:04.694',-0.200,0.185
'7:04.697',-0.200,0.180
'7:04.700',-0.220,0.170
'7:04.703',-0.225,0.165
'7:04.706',-0.240,0.165
'7:04.708',-0.220,0.170
'7:04.711',-0.205,0.170
'7:04.714',-0.210,0.160
'7:04.717',-0.205,0.155
'7:04.719',-0.220,0.155
'7:04.722',-0.225,0.155
'7:04.725',-0.215,0.165
'7:04.728',-0.200,0.165
'7:04.731',-0.205,0.165
'7:04.733',-0.220,0.150
'7:04.736',-0.245,0.155
'7:04.739',-0.250,0.145
'7:04.742',-0.245,0.165
'7:04.744',-0.220,0.165
'7:04.747',-0.195,0.165
'7:04.750',-0.205,0.155
'7:04.753',-0.205,0.150
'7:04.756',-0.190,0.160
'7:04.758',-0.190,0.155
'7:04.761',-0.160,0.175
'7:04.764',-0.175,0.170
'7:04.767',-0.190,0.165
'7:04.769',-0.190,0.165
'7:04.772',-0.185,0.170
'7:04.775',-0.175,0.185
'7:04.778',-0.150,0.195
'7:04.781',-0.150,0.195
'7:04.783',-0.155,0.185
'7:04.786',-0.150,0.180
'7:04.789',-0.125,0.185
'7:04.792',-0.095,0.195
'7:04.794',-0.030,0.190
'7:04.797',0.085,0.175
'7:04.800',0.310,0.165
'7:04.803',0.675,0.155
'7:04.806',1.065,0.160
'7:04.808',1.275,0.160
'7:04.811',1.230,0.140
'7:04.814',1.045,0.095
'7:04.817',0.890,0.025
'7:04.819',0.805,-0.105
'7:04.822',0.750,-0.295
'7:04.825',0.690,-0.470
'7:04.828',0.630,-0.580
'7:04.831',0.545,-0.525
'7:04.833',0.455,-0.435
'7:04.836',0.370,-0.390
'7:04.839',0.265,-0.365
'7:04.842',0.155,-0.335
'7:04.844',0.055,-0.315
'7:04.847',-0.050,-0.310
'7:04.850',-0.190,-0.310
'7:04.853',-0.325,-0.320
'7:04.856',-0.470,-0.305
'7:04.858',-0.600,-0.320
'7:04.861',-0.735,-0.340
'7:04.864',-0.890,-0.350
'7:04.867',-1.055,-0.365
'7:04.869',-1.185,-0.370
'7:04.872',-1.310,-0.355
'7:04.875',-1.400,-0.355
'7:04.878',-1.495,-0.340
'7:04.881',-1.600,-0.360
'7:04.883',-1.700,-0.370
'7:04.886',-1.780,-0.380
'7:04.889',-1.810,-0.395
'7:04.892',-1.825,-0.395
'7:04.894',-1.825,-0.380
'7:04.897',-1.805,-0.390
'7:04.900',-1.800,-0.405
'7:04.903',-1.785,-0.415
'7:04.906',-1.775,-0.435
'7:04.908',-1.715,-0.450
'7:04.911',-1.635,-0.460
'7:04.914',-1.550,-0.490
'7:04.917',-1.440,-0.510
'7:04.919',-1.325,-0.520
'7:04.922',-1.195,-0.515
'7:04.925',-1.060,-0.500
'7:04.928',-0.945,-0.460
'7:04.931',-0.885,-0.445
'7:04.933',-0.865,-0.435
'7:04.936',-0.840,-0.415
'7:04.939',-0.775,-0.395
'7:04.942',-0.715,-0.360
'7:04.944',-0.620,-0.325
'7:04.947',-0.545,-0.315
'7:04.950',-0.480,-0.275
'7:04.953',-0.445,-0.260
'7:04.956',-0.360,-0.210
'7:04.958',-0.295,-0.155
'7:04.961',-0.210,-0.100
'7:04.964',-0.150,-0.050
'7:04.967',-0.115,-0.020
'7:04.969',-0.090,0.005
'7:04.972',-0.050,0.045
'7:04.975',-0.015,0.095
'7:04.978',0.005,0.140
'7:04.981',0.035,0.165
'7:04.983',0.045,0.185
'7:04.986',0.045,0.185
'7:04.989',0.065,0.210
'7:04.992',0.075,0.225
'7:04.994',0.110,0.245
'7:04.997',0.130,0.260
'7:05.000',0.130,0.260
'7:05.003',0.120,0.265
'7:05.006',0.115,0.280
'7:05.008',0.135,0.280
'7:05.011',0.175,0.300
'7:05.014',0.180,0.310
'7:05.017',0.170,0.305
'7:05.019',0.170,0.305
'7:05.022',0.165,0.310
'7:05.025',0.185,0.320
'7:05.028',0.225,0.340
'7:05.031',0.240,0.335
'7:05.033',0.245,0.315
'7:05.036',0.240,0.320
'7:05.039',0.245,0.315
'7:05.042',0.265,0.330
'7:05.044',0.270,0.330
'7:05.047',0.270,0.330
'7:05.050',0.270,0.320
'7:05.053',0.245,0.315
'7:05.056',0.270,0.325
'7:05.058',0.280,0.340
'7:05.061',0.305,0.360
'7:05.064',0.330,0.355
'7:05.067',0.335,0.355
'7:05.069',0.340,0.345
'7:05.072',0.350,0.355
'7:05.075',0.370,0.370
'7:05.078',0.395,0.380
'7:05.081',0.415,0.390
'7:05.083',0.415,0.385
'7:05.086',0.430,0.385
'7:05.089',0.450,0.390
'7:05.092',0.465,0.400
'7:05.094',0.495,0.410
'7:05.097',0.525,0.410
'7:05.100',0.530,0.405
'7:05.103',0.525,0.405
'7:05.106',0.545,0.420
'7:05.108',0.570,0.440
'7:05.111',0.605,0.455
'7:05.114',0.620,0.450
'7:05.117',0.650,0.445
'7:05.119',0.660,0.435
'7:05.122',0.680,0.440
'7:05.125',0.690,0.450
'7:05.128',0.710,0.455
'7:05.131',0.735,0.455
'7:05.133',0.745,0.435
'7:05.136',0.735,0.430
'7:05.139',0.745,0.445
'7:05.142',0.765,0.475
'7:05.144',0.795,0.495
'7:05.147',0.805,0.475
'7:05.150',0.805,0.475
'7:05.153',0.800,0.475
'7:05.156',0.785,0.495
'7:05.158',0.805,0.510
'7:05.161',0.815,0.525
'7:05.164',0.820,0.530
'7:05.167',0.795,0.520
'7:05.169',0.775,0.520
'7:05.172',0.750,0.515
'7:05.175',0.755,0.530
'7:05.178',0.745,0.540
'7:05.181',0.730,0.535
'7:05.183',0.690,0.530
'7:05.186',0.640,0.520
'7:05.189',0.615,0.520
'7:05.192',0.595,0.510
'7:05.194',0.555,0.520
'7:05.197',0.520,0.510
'7:05.200',0.485,0.495
'7:05.203',0.425,0.465
'7:05.206',0.380,0.475
'7:05.208',0.350,0.480
'7:05.211',0.335,0.470
'7:05.214',0.315,0.450
'7:05.217',0.265,0.430
'7:05.219',0.210,0.400
'7:05.222',0.175,0.395
'7:05.225',0.150,0.395
'7:05.228',0.130,0.390
'7:05.231',0.100,0.375
'7:05.233',0.075,0.355
'7:05.236',0.040,0.335
'7:05.239',0.015,0.320
'7:05.242',0.010,0.320
'7:05.244',0.020,0.320
'7:05.247',-0.005,0.300
'7:05.250',-0.030,0.290
'7:05.253',-0.040,0.270
'7:05.256',-0.065,0.275
'7:05.258',-0.075,0.270
'7:05.261',-0.075,0.270
'7:05.264',-0.075,0.265
'7:05.267',-0.115,0.255
'7:05.269',-0.135,0.235
'7:05.272',-0.135,0.240
'7:05.275',-0.130,0.245
'7:05.278',-0.125,0.245
'7:05.281',-0.110,0.240
'7:05.283',-0.135,0.225
'7:05.286',-0.145,0.230
'7:05.289',-0.150,0.215
'7:05.292',-0.140,0.230
'7:05.294',-0.135,0.235
'7:05.297',-0.140,0.225
'7:05.300',-0.150,0.210
'7:05.303',-0.160,0.195
'7:05.306',-0.170,0.190
'7:05.308',-0.155,0.185
'7:05.311',-0.150,0.190
'7:05.314',-0.145,0.190
'7:05.317',-0.155,0.185
'7:05.319',-0.175,0.180
'7:05.322',-0.190,0.190
'7:05.325',-0.180,0.200
'7:05.328',-0.175,0.210
'7:05.331',-0.185,0.215
'7:05.333',-0.195,0.210
'7:05.336',-0.200,0.210
'7:05.339',-0.200,0.215
'7:05.342',-0.205,0.220
'7:05.344',-0.200,0.225
'7:05.347',-0.185,0.215
'7:05.350',-0.190,0.215
'7:05.353',-0.200,0.215
'7:05.356',-0.195,0.230
'7:05.358',-0.200,0.250
'7:05.361',-0.180,0.265
'7:05.364',-0.165,0.265
'7:05.367',-0.170,0.250
'7:05.369',-0.195,0.245
'7:05.372',-0.195,0.240
'7:05.375',-0.210,0.245
'7:05.378',-0.195,0.260
'7:05.381',-0.175,0.245
'7:05.383',-0.210,0.235
'7:05.386',-0.220,0.220
'7:05.389',-0.235,0.215
'7:05.392',-0.235,0.225
'7:05.394',-0.215,0.230
'7:05.397',-0.215,0.230
'7:05.400',-0.230,0.215
'7:05.403',-0.240,0.185
'7:05.406',-0.245,0.220
'7:05.408',-0.230,0.230
'7:05.411',-0.215,0.235
'7:05.414',-0.210,0.230
'7:05.417',-0.245,0.215
'7:05.419',-0.230,0.220
'7:05.422',-0.230,0.215
'7:05.425',-0.240,0.225
'7:05.428',-0.215,0.220
'7:05.431',-0.200,0.195
'7:05.433',-0.235,0.190
'7:05.436',-0.240,0.170
'7:05.439',-0.240,0.180
'7:05.442',-0.240,0.190
'7:05.444',-0.235,0.195
'7:05.447',-0.235,0.190
'7:05.450',-0.250,0.185
'7:05.453',-0.265,0.170
'7:05.456',-0.270,0.160
'7:05.458',-0.275,0.160
'7:05.461',-0.270,0.175
'7:05.464',-0.260,0.165
'7:05.467',-0.265,0.155
'7:05.469',-0.280,0.150
'7:05.472',-0.275,0.160
'7:05.475',-0.265,0.170
'7:05.478',-0.240,0.180
'7:05.481',-0.240,0.175
'7:05.483',-0.230,0.175
'7:05.486',-0.260,0.175
'7:05.489',-0.265,0.175
'7:05.492',-0.250,0.185
'7:05.494',-0.245,0.180
'7:05.497',-0.230,0.180
'7:05.500',-0.240,0.175
'7:05.503',-0.250,0.175
'7:05.506',-0.250,0.175
'7:05.508',-0.230,0.185
'7:05.511',-0.235,0.205
'7:05.514',-0.240,0.195
'7:05.517',-0.255,0.185
'7:05.519',-0.260,0.180
'7:05.522',-0.260,0.175
'7:05.525',-0.245,0.185
'7:05.528',-0.235,0.185
'7:05.531',-0.235,0.185
'7:05.533',-0.235,0.175
'7:05.536',-0.250,0.175
'7:05.539',-0.280,0.175
'7:05.542',-0.250,0.180
'7:05.544',-0.235,0.185
'7:05.547',-0.230,0.180
'7:05.550',-0.230,0.170
'7:05.553',-0.255,0.165
'7:05.556',-0.260,0.155
'7:05.558',-0.245,0.155
'7:05.561',-0.230,0.160
'7:05.564',-0.225,0.150
'7:05.567',-0.240,0.145
'7:05.569',-0.245,0.140
'7:05.572',-0.260,0.145
'7:05.575',-0.235,0.155
'7:05.578',-0.230,0.165
'7:05.581',-0.230,0.160
'7:05.583',-0.240,0.150
'7:05.586',-0.285,0.145
'7:05.589',-0.290,0.140
'7:05.592',-0.280,0.150
'7:05.594',-0.265,0.145
'7:05.597',-0.260,0.145
'7:05.600',-0.265,0.135
'7:05.603',-0.275,0.135
'7:05.606',-0.275,0.145
'7:05.608',-0.255,0.155
'7:05.611',-0.225,0.155
'7:05.614',-0.205,0.150
'7:05.617',-0.200,0.145
'7:05.619',-0.185,0.135
'7:05.622',-0.160,0.135
'7:05.625',-0.065,0.140
'7:05.628',0.170,0.150
'7:05.631',0.550,0.155
'7:05.633',0.955,0.145
'7:05.636',1.195,0.120
'7:05.639',1.155,0.100
'7:05.642',0.970,0.065
'7:05.644',0.820,0.000
'7:05.647',0.760,-0.150
'7:05.650',0.715,-0.365
'7:05.653',0.635,-0.600
'7:05.656',0.555,-0.710
'7:05.658',0.475,-0.650
'7:05.661',0.390,-0.530
'7:05.664',0.305,-0.460
'7:05.667',0.180,-0.435
'7:05.669',0.080,-0.425
'7:05.672',-0.030,-0.390
'7:05.675',-0.120,-0.365
'7:05.678',-0.220,-0.345
'7:05.681',-0.330,-0.350
'7:05.683',-0.470,-0.365
'7:05.686',-0.630,-0.380
'7:05.689',-0.800,-0.390
'7:05.692',-0.955,-0.390
'7:05.694',-1.090,-0.390
'7:05.697',-1.220,-0.405
'7:05.700',-1.340,-0.420
'7:05.703',-1.455,-0.430
'7:05.706',-1.550,-0.435
'7:05.708',-1.630,-0.430
'7:05.711',-1.695,-0.425
'7:05.714',-1.745,-0.425
'7:05.717',-1.790,-0.440
'7:05.719',-1.820,-0.465
'7:05.722',-1.830,-0.455
'7:05.725',-1.795,-0.455
'7:05.728',-1.755,-0.455
'7:05.731',-1.725,-0.485
'7:05.733',-1.700,-0.515
'7:05.736',-1.660,-0.545
'7:05.739',-1.570,-0.560
'7:05.742',-1.440,-0.565
'7:05.744',-1.290,-0.575
'7:05.747',-1.165,-0.570
'7:05.750',-1.060,-0.565
'7:05.753',-0.990,-0.545
'7:05.756',-0.980,-0.510
'7:05.758',-0.945,-0.475
'7:05.761',-0.885,-0.455
'7:05.764',-0.830,-0.435
'7:05.767',-0.770,-0.420
'7:05.769',-0.730,-0.405
'7:05.772',-0.660,-0.370
'7:05.775',-0.580,-0.330
'7:05.778',-0.500,-0.280
'7:05.781',-0.435,-0.250
'7:05.783',-0.375,-0.215
'7:05.786',-0.320,-0.185
'7:05.789',-0.270,-0.135
'7:05.792',-0.210,-0.085
'7:05.794',-0.145,-0.040
'7:05.797',-0.100,-0.010
'7:05.800',-0.080,0.015
'7:05.803',-0.060,0.050
'7:05.806',-0.055,0.075
'7:05.808',-0.025,0.105
'7:05.811',-0.005,0.125
'7:05.814',0.025,0.135
'7:05.817',0.020,0.135
'7:05.819',0.015,0.130
'7:05.822',0.000,0.130
'7:05.825',0.015,0.135
'7:05.828',0.030,0.140
'7:05.831',0.060,0.145
'7:05.833',0.055,0.140
'7:05.836',0.050,0.135
'7:05.839',0.035,0.155
'7:05.842',0.035,0.155
'7:05.844',0.070,0.165
'7:05.847',0.080,0.165
'7:05.850',0.080,0.160
'7:05.853',0.065,0.155
'7:05.856',0.065,0.165
'7:05.858',0.095,0.175
'7:05.861',0.135,0.170
'7:05.864',0.155,0.185
'7:05.867',0.150,0.185
'7:05.869',0.135,0.180
'7:05.872',0.145,0.180
'7:05.875',0.150,0.205
'7:05.878',0.180,0.220
'7:05.881',0.190,0.220
'7:05.883',0.215,0.230
'7:05.886',0.215,0.225
'7:05.889',0.260,0.225
'7:05.892',0.270,0.245
'7:05.894',0.315,0.230
'7:05.897',0.335,0.245
'7:05.900',0.330,0.240
'7:05.903',0.320,0.250
'7:05.906',0.325,0.265
'7:05.908',0.365,0.245
'7:05.911',0.400,0.280
'7:05.914',0.455,0.260
'7:05.917',0.475,0.270
'7:05.919',0.480,0.260
'7:05.922',0.490,0.270
'7:05.925',0.510,0.280
'7:05.928',0.530,0.295
'7:05.931',0.560,0.270
'7:05.933',0.570,0.280
'7:05.936',0.575,0.270
'7:05.939',0.585,0.275
'7:05.942',0.605,0.305
'7:05.944',0.650,0.285
'7:05.947',0.660,0.320
'7:05.950',0.680,0.305
'7:05.953',0.685,0.295
'7:05.956',0.690,0.310
'7:05.958',0.700,0.320
'7:05.961',0.705,0.335
'7:05.964',0.685,0.340
'7:05.967',0.685,0.350
'7:05.969',0.655,0.350
'7:05.972',0.640,0.325
'7:05.975',0.645,0.375
'7:05.978',0.640,0.380
'7:05.981',0.650,0.385
'7:05.983',0.615,0.385
'7:05.986',0.610,0.385
'7:05.989',0.575,0.380
'7:05.992',0.575,0.390
'7:05.994',0.535,0.385
'7:05.997',0.525,0.370
'7:06.000',0.495,0.395
'7:06.003',0.455,0.390
'7:06.006',0.405,0.400
'7:06.008',0.370,0.390
'7:06.011',0.335,0.400
'7:06.014',0.300,0.375
'7:06.017',0.265,0.355
'7:06.019',0.230,0.355
'7:06.022',0.210,0.340
'7:06.025',0.185,0.325
'7:06.028',0.160,0.325
'7:06.031',0.130,0.310
'7:06.033',0.065,0.280
'7:06.036',0.015,0.270
'7:06.039',-0.010,0.235
'7:06.042',-0.030,0.255
'7:06.044',-0.040,0.235
'7:06.047',-0.060,0.230
'7:06.050',-0.090,0.205
'7:06.053',-0.100,0.185
'7:06.056',-0.115,0.190
'7:06.058',-0.130,0.180
'7:06.061',-0.125,0.160
'7:06.064',-0.135,0.150
'7:06.067',-0.170,0.145
'7:06.069',-0.185,0.120
'7:06.072',-0.190,0.110
'7:06.075',-0.190,0.100
'7:06.078',-0.190,0.105
'7:06.081',-0.195,0.095
'7:06.083',-0.200,0.075
'7:06.086',-0.235,0.070
'7:06.089',-0.235,0.060
'7:06.092',-0.250,0.080
'7:06.094',-0.265,0.085
'7:06.097',-0.270,0.090
'7:06.100',-0.275,0.080
'7:06.103',-0.285,0.060
'7:06.106',-0.285,0.075
'7:06.108',-0.275,0.070
'7:06.111',-0.255,0.085
'7:06.114',-0.255,0.085
'7:06.117',-0.250,0.085
'7:06.119',-0.265,0.085
'7:06.122',-0.265,0.095
'7:06.125',-0.260,0.100
'7:06.128',-0.255,0.110
'7:06.131',-0.265,0.120
'7:06.133',-0.255,0.125
'7:06.136',-0.295,0.115
'7:06.139',-0.300,0.115
'7:06.142',-0.290,0.120
'7:06.144',-0.285,0.135
'7:06.147',-0.290,0.135
'7:06.150',-0.305,0.125
'7:06.153',-0.310,0.115
'7:06.156',-0.300,0.125
'7:06.158',-0.280,0.135
'7:06.161',-0.250,0.150
'7:06.164',-0.260,0.155
'7:06.167',-0.260,0.140
'7:06.169',-0.280,0.140
'7:06.172',-0.290,0.140
'7:06.175',-0.285,0.140
'7:06.178',-0.270,0.145
'7:06.181',-0.280,0.145
'7:06.183',-0.300,0.140
'7:06.186',-0.330,0.135
'7:06.189',-0.335,0.130
'7:06.192',-0.325,0.130
'7:06.194',-0.310,0.140
'7:06.197',-0.305,0.135
'7:06.200',-0.300,0.120
'7:06.203',-0.315,0.110
'7:06.206',-0.335,0.105
'7:06.208',-0.315,0.105
'7:06.211',-0.305,0.110
'7:06.214',-0.315,0.105
'7:06.217',-0.325,0.095
'7:06.219',-0.350,0.080
'7:06.222',-0.375,0.080
'7:06.225',-0.350,0.085
'7:06.228',-0.340,0.085
'7:06.231',-0.335,0.075
'7:06.233',-0.340,0.065
'7:06.236',-0.345,0.065
'7:06.239',-0.345,0.075
'7:06.242',-0.335,0.075
'7:06.244',-0.340,0.085
'7:06.247',-0.345,0.085
'7:06.250',-0.355,0.075
'7:06.253',-0.360,0.070
'7:06.256',-0.360,0.075
'7:06.258',-0.345,0.080
'7:06.261',-0.350,0.075
'7:06.264',-0.345,0.075
'7:06.267',-0.340,0.075
'7:06.269',-0.355,0.085
'7:06.272',-0.355,0.095
'7:06.275',-0.340,0.105
'7:06.278',-0.330,0.095
'7:06.281',-0.345,0.100
'7:06.283',-0.365,0.090
'7:06.286',-0.375,0.080
'7:06.289',-0.365,0.080
'7:06.292',-0.340,0.085
'7:06.294',-0.325,0.095
'7:06.297',-0.305,0.105
'7:06.300',-0.315,0.090
'7:06.303',-0.330,0.085
'7:06.306',-0.330,0.090
'7:06.308',-0.325,0.090
'7:06.311',-0.310,0.110
'7:06.314',-0.315,0.105
'7:06.317',-0.310,0.105
'7:06.319',-0.315,0.095
'7:06.322',-0.340,0.095
'7:06.325',-0.320,0.100
'7:06.328',-0.315,0.105
'7:06.331',-0.330,0.100
'7:06.333',-0.335,0.090
'7:06.336',-0.360,0.080
'7:06.339',-0.355,0.085
'7:06.342',-0.355,0.090
'7:06.344',-0.350,0.100
'7:06.347',-0.335,0.095
'7:06.350',-0.360,0.080
'7:06.353',-0.360,0.060
'7:06.356',-0.360,0.065
'7:06.358',-0.345,0.065
'7:06.361',-0.335,0.065
'7:06.364',-0.320,0.065
'7:06.367',-0.340,0.060
'7:06.369',-0.370,0.060
'7:06.372',-0.365,0.065
'7:06.375',-0.370,0.075
'7:06.378',-0.365,0.085
'7:06.381',-0.355,0.090
'7:06.383',-0.355,0.085
'7:06.386',-0.375,0.070
'7:06.389',-0.370,0.055
'7:06.392',-0.355,0.060
'7:06.394',-0.330,0.065
'7:06.397',-0.315,0.070
'7:06.400',-0.325,0.065
'7:06.403',-0.335,0.070
'7:06.406',-0.310,0.075
'7:06.408',-0.285,0.085
'7:06.411',-0.235,0.085
'7:06.414',-0.175,0.085
'7:06.417',-0.060,0.065
'7:06.419',0.205,0.065
'7:06.422',0.610,0.065
'7:06.425',1.015,0.060
'7:06.428',1.180,0.050
'7:06.431',1.065,0.020
'7:06.433',0.840,-0.035
'7:06.436',0.705,-0.125
'7:06.439',0.620,-0.305
'7:06.442',0.585,-0.545
'7:06.444',0.500,-0.700
'7:06.447',0.405,-0.700
'7:06.450',0.305,-0.605
'7:06.453',0.205,-0.535
'7:06.456',0.100,-0.495
'7:06.458',0.005,-0.470
'7:06.461',-0.085,-0.460
'7:06.464',-0.165,-0.445
'7:06.467',-0.290,-0.455
'7:06.469',-0.430,-0.455
'7:06.472',-0.585,-0.445
'7:06.475',-0.725,-0.425
'7:06.478',-0.865,-0.425
'7:06.481',-1.030,-0.430
'7:06.483',-1.190,-0.440
'7:06.486',-1.355,-0.460
'7:06.489',-1.475,-0.475
'7:06.492',-1.565,-0.475
'7:06.494',-1.640,-0.480
'7:06.497',-1.720,-0.495
'7:06.500',-1.810,-0.505
'7:06.503',-1.870,-0.515
'7:06.506',-1.915,-0.500
'7:06.508',-1.930,-0.495
'7:06.511',-1.905,-0.485
'7:06.514',-1.895,-0.485
'7:06.517',-1.855,-0.500
'7:06.519',-1.835,-0.530
'7:06.522',-1.790,-0.550
'7:06.525',-1.705,-0.555
'7:06.528',-1.610,-0.565
'7:06.531',-1.495,-0.575
'7:06.533',-1.395,-0.590
'7:06.536',-1.280,-0.590
'7:06.539',-1.165,-0.575
'7:06.542',-1.075,-0.545
'7:06.544',-1.025,-0.500
'7:06.547',-1.000,-0.505
'7:06.550',-0.960,-0.500
'7:06.553',-0.965,-0.495
'7:06.556',-0.890,-0.460
'7:06.558',-0.825,-0.420
'7:06.561',-0.745,-0.350
'7:06.564',-0.675,-0.350
'7:06.567',-0.625,-0.320
'7:06.569',-0.590,-0.295
'7:06.572',-0.525,-0.255
'7:06.575',-0.440,-0.200
'7:06.578',-0.360,-0.140
'7:06.581',-0.290,-0.095
'7:06.583',-0.235,-0.080
'7:06.586',-0.210,-0.045
'7:06.589',-0.185,-0.015
'7:06.592',-0.150,0.015
'7:06.594',-0.115,0.045
'7:06.597',-0.100,0.060
'7:06.600',-0.080,0.085
'7:06.603',-0.090,0.095
'7:06.606',-0.075,0.105
'7:06.608',-0.070,0.130
'7:06.611',-0.040,0.145
'7:06.614',-0.040,0.145
'7:06.617',-0.055,0.145
'7:06.619',-0.065,0.130
'7:06.622',-0.055,0.135
'7:06.625',-0.050,0.150
'7:06.628',-0.025,0.160
'7:06.631',-0.020,0.165
'7:06.633',-0.020,0.165
'7:06.636',-0.030,0.175
'7:06.639',-0.015,0.170
'7:06.642',0.005,0.180
'7:06.644',0.025,0.190
'7:06.647',0.040,0.180
'7:06.650',0.030,0.170
'7:06.653',0.025,0.180
'7:06.656',0.035,0.175
'7:06.658',0.050,0.185
'7:06.661',0.075,0.200
'7:06.664',0.095,0.205
'7:06.667',0.100,0.200
'7:06.669',0.105,0.200
'7:06.672',0.120,0.200
'7:06.675',0.155,0.200
'7:06.678',0.190,0.215
'7:06.681',0.215,0.210
'7:06.683',0.240,0.215
'7:06.686',0.255,0.210
'7:06.689',0.255,0.230
'7:06.692',0.305,0.265
'7:06.694',0.340,0.265
'7:06.697',0.355,0.275
'7:06.700',0.380,0.280
'7:06.703',0.385,0.260
'7:06.706',0.400,0.270
'7:06.708',0.425,0.285
'7:06.711',0.465,0.290
'7:06.714',0.495,0.295
'7:06.717',0.520,0.295
'7:06.719',0.540,0.285
'7:06.722',0.545,0.290
'7:06.725',0.570,0.310
'7:06.728',0.595,0.320
'7:06.731',0.620,0.320
'7:06.733',0.640,0.320
'7:06.736',0.640,0.315
'7:06.739',0.660,0.340
'7:06.742',0.695,0.375
'7:06.744',0.710,0.385
'7:06.747',0.720,0.375
'7:06.750',0.725,0.370
'7:06.753',0.725,0.380
'7:06.756',0.720,0.390
'7:06.758',0.725,0.390
'7:06.761',0.750,0.415
'7:06.764',0.745,0.410
'7:06.767',0.725,0.400
'7:06.769',0.705,0.405
'7:06.772',0.700,0.405
'7:06.775',0.700,0.425
'7:06.778',0.680,0.420
'7:06.781',0.655,0.425
'7:06.783',0.605,0.415
'7:06.786',0.560,0.410
'7:06.789',0.530,0.415
'7:06.792',0.515,0.425
'7:06.794',0.500,0.435
'7:06.797',0.465,0.420
'7:06.800',0.415,0.400
'7:06.803',0.365,0.390
'7:06.806',0.320,0.385
'7:06.808',0.285,0.390
'7:06.811',0.265,0.390
'7:06.814',0.240,0.375
'7:06.817',0.195,0.355
'7:06.819',0.140,0.345
'7:06.822',0.065,0.330
'7:06.825',0.050,0.320
'7:06.828',0.005,0.320
'7:06.831',-0.020,0.310
'7:06.833',-0.055,0.290
'7:06.836',-0.090,0.270
'7:06.839',-0.110,0.265
'7:06.842',-0.140,0.260
'7:06.844',-0.125,0.265
'7:06.847',-0.155,0.240
'7:06.850',-0.185,0.220
'7:06.853',-0.200,0.210
'7:06.856',-0.220,0.205
'7:06.858',-0.225,0.210
'7:06.861',-0.215,0.205
'7:06.864',-0.230,0.190
'7:06.867',-0.225,0.175
'7:06.869',-0.260,0.165
'7:06.872',-0.280,0.170
'7:06.875',-0.285,0.170
'7:06.878',-0.280,0.175
'7:06.881',-0.285,0.175
'7:06.883',-0.285,0.165
'7:06.886',-0.300,0.165
'7:06.889',-0.300,0.165
'7:06.892',-0.295,0.170
'7:06.894',-0.295,0.170
'7:06.897',-0.300,0.160
'7:06.900',-0.310,0.145
'7:06.903',-0.330,0.135
'7:06.906',-0.350,0.145
'7:06.908',-0.330,0.160
'7:06.911',-0.330,0.160
'7:06.914',-0.325,0.155
'7:06.917',-0.345,0.145
'7:06.919',-0.355,0.135
'7:06.922',-0.355,0.140
'7:06.925',-0.355,0.140
'7:06.928',-0.335,0.160
'7:06.931',-0.335,0.155
'7:06.933',-0.350,0.150
'7:06.936',-0.365,0.145
'7:06.939',-0.360,0.155
'7:06.942',-0.340,0.170
'7:06.944',-0.315,0.175
'7:06.947',-0.305,0.175
'7:06.950',-0.320,0.170
'7:06.953',-0.335,0.170
'7:06.956',-0.355,0.170
'7:06.958',-0.350,0.190
'7:06.961',-0.340,0.185
'7:06.964',-0.325,0.180
'7:06.967',-0.310,0.180
'7:06.969',-0.320,0.175
'7:06.972',-0.340,0.180
'7:06.975',-0.345,0.175
'7:06.978',-0.325,0.185
'7:06.981',-0.315,0.185
'7:06.983',-0.320,0.170
'7:06.986',-0.340,0.160
'7:06.989',-0.345,0.160
'7:06.992',-0.345,0.160
'7:06.994',-0.315,0.170
'7:06.997',-0.295,0.165
'7:07.000',-0.300,0.150
'7:07.003',-0.335,0.155
'7:07.006',-0.325,0.155
'7:07.008',-0.335,0.155
'7:07.011',-0.315,0.155
'7:07.014',-0.320,0.150
'7:07.017',-0.330,0.140
'7:07.019',-0.340,0.145
'7:07.022',-0.345,0.145
'7:07.025',-0.350,0.150
'7:07.028',-0.335,0.150
'7:07.031',-0.340,0.145
'7:07.033',-0.370,0.130
'7:07.036',-0.360,0.135
'7:07.039',-0.370,0.140
'7:07.042',-0.360,0.150
'7:07.044',-0.365,0.155
'7:07.047',-0.360,0.150
'7:07.050',-0.365,0.145
'7:07.053',-0.375,0.135
'7:07.056',-0.360,0.135
'7:07.058',-0.355,0.135
'7:07.061',-0.350,0.140
'7:07.064',-0.350,0.135
'7:07.067',-0.355,0.135
'7:07.069',-0.370,0.130
'7:07.072',-0.355,0.140
'7:07.075',-0.340,0.150
'7:07.078',-0.330,0.150
'7:07.081',-0.315,0.140
'7:07.083',-0.320,0.130
'7:07.086',-0.335,0.130
'7:07.089',-0.345,0.125
'7:07.092',-0.335,0.140
'7:07.094',-0.325,0.145
'7:07.097',-0.335,0.145
'7:07.100',-0.340,0.135
'7:07.103',-0.340,0.130
'7:07.106',-0.340,0.135
'7:07.108',-0.335,0.135
'7:07.111',-0.305,0.155
'7:07.114',-0.320,0.140
'7:07.117',-0.325,0.130
'7:07.119',-0.340,0.125
'7:07.122',-0.330,0.130
'7:07.125',-0.330,0.140
'7:07.128',-0.310,0.135
'7:07.131',-0.305,0.130
'7:07.133',-0.300,0.125
'7:07.136',-0.320,0.105
'7:07.139',-0.325,0.105
'7:07.142',-0.330,0.115
'7:07.144',-0.315,0.115
'7:07.147',-0.295,0.115
'7:07.150',-0.320,0.105
'7:07.153',-0.340,0.105
'7:07.156',-0.340,0.105
'7:07.158',-0.340,0.105
'7:07.161',-0.325,0.110
'7:07.164',-0.320,0.105
'7:07.167',-0.355,0.095
'7:07.169',-0.365,0.090
'7:07.172',-0.375,0.105
'7:07.175',-0.345,0.110
'7:07.178',-0.340,0.120
'7:07.181',-0.335,0.115
'7:07.183',-0.335,0.100
'7:07.186',-0.345,0.095
'7:07.189',-0.350,0.105
'7:07.192',-0.345,0.110
'7:07.194',-0.320,0.110
'7:07.197',-0.330,0.110
'7:07.200',-0.320,0.105
'7:07.203',-0.330,0.100
'7:07.206',-0.330,0.105
'7:07.208',-0.300,0.105
'7:07.211',-0.270,0.115
'7:07.214',-0.235,0.115
'7:07.217',-0.210,0.100
'7:07.219',-0.150,0.090
'7:07.222',-0.010,0.100
'7:07.225',0.280,0.100
'7:07.228',0.700,0.100
'7:07.231',1.075,0.100
'7:07.233',1.205,0.070
'7:07.236',1.080,0.050
'7:07.239',0.870,0.015
'7:07.242',0.740,-0.050
'7:07.244',0.670,-0.175
'7:07.247',0.635,-0.380
'7:07.250',0.530,-0.595
'7:07.253',0.435,-0.680
'7:07.256',0.345,-0.615
'7:07.258',0.270,-0.520
'7:07.261',0.180,-0.480
'7:07.264',0.055,-0.475
'7:07.267',-0.065,-0.465
'7:07.269',-0.195,-0.455
'7:07.272',-0.330,-0.440
'7:07.275',-0.445,-0.435
'7:07.278',-0.555,-0.425
'7:07.281',-0.690,-0.435
'7:07.283',-0.845,-0.440
'7:07.286',-1.000,-0.460
'7:07.289',-1.150,-0.470
'7:07.292',-1.295,-0.460
'7:07.294',-1.420,-0.460
'7:07.297',-1.540,-0.465
'7:07.300',-1.640,-0.480
'7:07.303',-1.745,-0.490
'7:07.306',-1.825,-0.485
'7:07.308',-1.885,-0.485
'7:07.311',-1.935,-0.485
'7:07.314',-1.970,-0.485
'7:07.317',-2.015,-0.510
'7:07.319',-2.050,-0.525
'7:07.322',-2.085,-0.515
'7:07.325',-2.055,-0.510
'7:07.328',-2.015,-0.505
'7:07.331',-1.960,-0.515
'7:07.333',-1.925,-0.540
'7:07.336',-1.890,-0.565
'7:07.339',-1.845,-0.580
'7:07.342',-1.735,-0.585
'7:07.344',-1.620,-0.585
'7:07.347',-1.480,-0.605
'7:07.350',-1.365,-0.610
'7:07.353',-1.255,-0.620
'7:07.356',-1.120,-0.605
'7:07.358',-1.015,-0.575
'7:07.361',-0.950,-0.540
'7:07.364',-0.925,-0.510
'7:07.367',-0.895,-0.500
'7:07.369',-0.875,-0.485
'7:07.372',-0.825,-0.455
'7:07.375',-0.740,-0.430
'7:07.378',-0.670,-0.400
'7:07.381',-0.610,-0.370
'7:07.383',-0.555,-0.350
'7:07.386',-0.515,-0.325
'7:07.389',-0.460,-0.290
'7:07.392',-0.360,-0.245
'7:07.394',-0.260,-0.205
'7:07.397',-0.200,-0.170
'7:07.400',-0.150,-0.145
'7:07.403',-0.105,-0.110
'7:07.406',-0.070,-0.075
'7:07.408',-0.025,-0.035
'7:07.411',0.015,0.000
'7:07.414',0.045,0.025
'7:07.417',0.070,0.050
'7:07.419',0.080,0.055
'7:07.422',0.070,0.075
'7:07.425',0.085,0.110
'7:07.428',0.100,0.125
'7:07.431',0.115,0.130
'7:07.433',0.105,0.130
'7:07.436',0.090,0.140
'7:07.439',0.130,0.150
'7:07.442',0.140,0.160
'7:07.444',0.165,0.170
'7:07.447',0.185,0.170
'7:07.450',0.185,0.170
'7:07.453',0.180,0.165
'7:07.456',0.180,0.175
'7:07.458',0.170,0.190
'7:07.461',0.190,0.200
'7:07.464',0.200,0.195
'7:07.467',0.200,0.200
'7:07.469',0.205,0.190
'7:07.472',0.225,0.200
'7:07.475',0.250,0.210
'7:07.478',0.260,0.210
'7:07.481',0.280,0.210
'7:07.483',0.290,0.200
'7:07.486',0.280,0.215
'7:07.489',0.295,0.215
'7:07.492',0.310,0.230
'7:07.494',0.335,0.245
'7:07.497',0.355,0.250
'7:07.500',0.370,0.245
'7:07.503',0.360,0.255
'7:07.506',0.365,0.260
'7:07.508',0.385,0.260
'7:07.511',0.410,0.280
'7:07.514',0.420,0.270
'7:07.517',0.440,0.275
'7:07.519',0.455,0.265
'7:07.522',0.470,0.280
'7:07.525',0.490,0.280
'7:07.528',0.510,0.280
'7:07.531',0.545,0.275
'7:07.533',0.560,0.280
'7:07.536',0.555,0.275
'7:07.539',0.595,0.290
'7:07.542',0.610,0.295
'7:07.544',0.665,0.295
'7:07.547',0.685,0.300
'7:07.550',0.690,0.300
'7:07.553',0.695,0.295
'7:07.556',0.710,0.305
'7:07.558',0.740,0.315
'7:07.561',0.750,0.325
'7:07.564',0.770,0.330
'7:07.567',0.780,0.335
'7:07.569',0.805,0.330
'7:07.572',0.825,0.325
'7:07.575',0.840,0.325
'7:07.578',0.880,0.355
'7:07.581',0.875,0.355
'7:07.583',0.880,0.355
'7:07.586',0.875,0.350
'7:07.589',0.885,0.375
'7:07.592',0.905,0.390
'7:07.594',0.915,0.400
'7:07.597',0.915,0.415
'7:07.600',0.900,0.395
'7:07.603',0.880,0.400
'7:07.606',0.875,0.420
'7:07.608',0.875,0.425
'7:07.611',0.870,0.435
'7:07.614',0.865,0.430
'7:07.617',0.845,0.425
'7:07.619',0.795,0.425
'7:07.622',0.785,0.430
'7:07.625',0.745,0.435
'7:07.628',0.735,0.435
'7:07.631',0.715,0.450
'7:07.633',0.675,0.440
'7:07.636',0.635,0.430
'7:07.639',0.600,0.425
'7:07.642',0.595,0.425
'7:07.644',0.570,0.425
'7:07.647',0.530,0.410
'7:07.650',0.475,0.400
'7:07.653',0.425,0.380
'7:07.656',0.400,0.380
'7:07.658',0.375,0.375
'7:07.661',0.345,0.360
'7:07.664',0.325,0.345
'7:07.667',0.280,0.325
'7:07.669',0.235,0.325
'7:07.672',0.200,0.295
'7:07.675',0.165,0.285
'7:07.678',0.170,0.280
'7:07.681',0.125,0.260
'7:07.683',0.095,0.235
'7:07.686',0.065,0.220
'7:07.689',0.045,0.220
'7:07.692',0.040,0.205
'7:07.694',0.035,0.200
'7:07.697',0.020,0.190
'7:07.700',0.020,0.170
'7:07.703',-0.010,0.150
'7:07.706',-0.025,0.145
'7:07.708',-0.025,0.145
'7:07.711',-0.025,0.145
'7:07.714',-0.045,0.135
'7:07.717',-0.065,0.125
'7:07.719',-0.070,0.120
'7:07.722',-0.090,0.120
'7:07.725',-0.080,0.120
'7:07.728',-0.085,0.125
'7:07.731',-0.085,0.115
'7:07.733',-0.070,0.110
'7:07.736',-0.100,0.110
'7:07.739',-0.115,0.115
'7:07.742',-0.110,0.125
'7:07.744',-0.100,0.135
'7:07.747',-0.110,0.145
'7:07.750',-0.115,0.145
'7:07.753',-0.120,0.140
'7:07.756',-0.130,0.135
'7:07.758',-0.125,0.130
'7:07.761',-0.115,0.130
'7:07.764',-0.115,0.120
'7:07.767',-0.115,0.115
'7:07.769',-0.145,0.110
'7:07.772',-0.140,0.120
'7:07.775',-0.135,0.130
'7:07.778',-0.115,0.135
'7:07.781',-0.115,0.135
'7:07.783',-0.125,0.130
'7:07.786',-0.125,0.115
'7:07.789',-0.125,0.125
'7:07.792',-0.115,0.130
'7:07.794',-0.115,0.125
'7:07.797',-0.105,0.120
'7:07.800',-0.115,0.120
'7:07.803',-0.135,0.115
'7:07.806',-0.145,0.115
'7:07.808',-0.135,0.130
'7:07.811',-0.130,0.125
'7:07.814',-0.140,0.125
'7:07.817',-0.155,0.110
'7:07.819',-0.180,0.100
'7:07.822',-0.175,0.100
'7:07.825',-0.165,0.100
'7:07.828',-0.170,0.110
'7:07.831',-0.155,0.110
'7:07.833',-0.165,0.100
'7:07.836',-0.180,0.090
'7:07.839',-0.175,0.090
'7:07.842',-0.165,0.105
'7:07.844',-0.155,0.110
'7:07.847',-0.160,0.100
'7:07.850',-0.160,0.095
'7:07.853',-0.185,0.075
'7:07.856',-0.190,0.090
'7:07.858',-0.170,0.110
'7:07.861',-0.155,0.115
'7:07.864',-0.165,0.115
'7:07.867',-0.175,0.095
'7:07.869',-0.190,0.095
'7:07.872',-0.190,0.095
'7:07.875',-0.185,0.105
'7:07.878',-0.180,0.115
'7:07.881',-0.160,0.115
'7:07.883',-0.155,0.110
'7:07.886',-0.185,0.110
'7:07.889',-0.175,0.115
'7:07.892',-0.170,0.115
'7:07.894',-0.150,0.125
'7:07.897',-0.140,0.120
'7:07.900',-0.160,0.110
'7:07.903',-0.180,0.110
'7:07.906',-0.180,0.115
'7:07.908',-0.175,0.125
'7:07.911',-0.170,0.145
'7:07.914',-0.155,0.145
'7:07.917',-0.150,0.155
'7:07.919',-0.155,0.150
'7:07.922',-0.160,0.140
'7:07.925',-0.160,0.120
'7:07.928',-0.150,0.110
'7:07.931',-0.145,0.100
'7:07.933',-0.160,0.090
'7:07.936',-0.170,0.095
'7:07.939',-0.175,0.090
'7:07.942',-0.160,0.100
'7:07.944',-0.145,0.105
'7:07.947',-0.150,0.100
'7:07.950',-0.150,0.095
'7:07.953',-0.170,0.080
'7:07.956',-0.170,0.080
'7:07.958',-0.175,0.080
'7:07.961',-0.160,0.075
'7:07.964',-0.165,0.075
'7:07.967',-0.185,0.070
'7:07.969',-0.170,0.060
'7:07.972',-0.180,0.060
'7:07.975',-0.175,0.075
'7:07.978',-0.150,0.080
'7:07.981',-0.155,0.075
'7:07.983',-0.170,0.060
'7:07.986',-0.175,0.060
'7:07.989',-0.175,0.060
'7:07.992',-0.165,0.060
'7:07.994',-0.165,0.065
'7:07.997',-0.165,0.060
'7:08.000',-0.175,0.065
'7:08.003',-0.190,0.060
'7:08.006',-0.190,0.065
'7:08.008',-0.175,0.075
'7:08.011',-0.135,0.080
'7:08.014',-0.140,0.080
'7:08.017',-0.165,0.070
'7:08.019',-0.160,0.075
'7:08.022',-0.165,0.090
'7:08.025',-0.155,0.095
'7:08.028',-0.145,0.100
'7:08.031',-0.145,0.085
'7:08.033',-0.140,0.075
'7:08.036',-0.150,0.070
'7:08.039',-0.150,0.080
'7:08.042',-0.125,0.080
'7:08.044',-0.125,0.100
'7:08.047',-0.125,0.095
'7:08.050',-0.115,0.080
'7:08.053',-0.130,0.080
'7:08.056',-0.125,0.085
'7:08.058',-0.120,0.100
'7:08.061',-0.100,0.100
'7:08.064',-0.100,0.095
'7:08.067',-0.110,0.085
'7:08.069',-0.100,0.080
'7:08.072',-0.085,0.080
'7:08.075',-0.070,0.085
'7:08.078',-0.020,0.080
'7:08.081',0.050,0.075
'7:08.083',0.215,0.060
'7:08.086',0.500,0.060
'7:08.089',0.900,0.055
'7:08.092',1.190,0.050
'7:08.094',1.235,0.025
'7:08.097',1.060,-0.015
'7:08.100',0.880,-0.090
'7:08.103',0.765,-0.225
'7:08.106',0.710,-0.440
'7:08.108',0.655,-0.610
'7:08.111',0.580,-0.635
'7:08.114',0.505,-0.580
'7:08.117',0.395,-0.515
'7:08.119',0.280,-0.500
'7:08.122',0.165,-0.490
'7:08.125',0.055,-0.465
'7:08.128',-0.050,-0.450
'7:08.131',-0.210,-0.440
'7:08.133',-0.345,-0.450
'7:08.136',-0.505,-0.460
'7:08.139',-0.645,-0.460
'7:08.142',-0.780,-0.460
'7:08.144',-0.905,-0.460
'7:08.147',-1.065,-0.475
'7:08.150',-1.235,-0.485
'7:08.153',-1.360,-0.500
'7:08.156',-1.470,-0.500
'7:08.158',-1.550,-0.490
'7:08.161',-1.595,-0.485
'7:08.164',-1.660,-0.495
'7:08.167',-1.745,-0.500
'7:08.169',-1.805,-0.510
'7:08.172',-1.850,-0.510
'7:08.175',-1.860,-0.505
'7:08.178',-1.865,-0.500
'7:08.181',-1.860,-0.495
'7:08.183',-1.855,-0.500
'7:08.186',-1.840,-0.520
'7:08.189',-1.790,-0.525
'7:08.192',-1.705,-0.525
'7:08.194',-1.620,-0.545
'7:08.197',-1.540,-0.560
'7:08.200',-1.445,-0.580
'7:08.203',-1.330,-0.595
'7:08.206',-1.205,-0.600
'7:08.208',-1.055,-0.565
'7:08.211',-0.930,-0.560
'7:08.214',-0.820,-0.555
'7:08.217',-0.775,-0.530
'7:08.219',-0.755,-0.510
'7:08.222',-0.740,-0.495
'7:08.225',-0.670,-0.465
'7:08.228',-0.600,-0.455
'7:08.231',-0.545,-0.430
'7:08.233',-0.485,-0.410
'7:08.236',-0.450,-0.390
'7:08.239',-0.390,-0.350
'7:08.242',-0.315,-0.315
'7:08.244',-0.245,-0.275
'7:08.247',-0.170,-0.245
'7:08.250',-0.130,-0.205
'7:08.253',-0.065,-0.185
'7:08.256',-0.020,-0.140
'7:08.258',0.040,-0.105
'7:08.261',0.110,-0.065
'7:08.264',0.155,-0.035
'7:08.267',0.175,-0.010
'7:08.269',0.170,0.005
'7:08.272',0.190,0.030
'7:08.275',0.195,0.060
'7:08.278',0.235,0.080
'7:08.281',0.240,0.085
'7:08.283',0.240,0.090
'7:08.286',0.250,0.095
'7:08.289',0.260,0.110
'7:08.292',0.275,0.115
'7:08.294',0.285,0.135
'7:08.297',0.275,0.130
'7:08.300',0.280,0.125
'7:08.303',0.255,0.120
'7:08.306',0.245,0.120
'7:08.308',0.255,0.140
'7:08.311',0.275,0.145
'7:08.314',0.300,0.150
'7:08.317',0.305,0.145
'7:08.319',0.300,0.155
'7:08.322',0.315,0.170
'7:08.325',0.345,0.185
'7:08.328',0.355,0.195
'7:08.331',0.355,0.200
'7:08.333',0.370,0.200
'7:08.336',0.365,0.200
'7:08.339',0.360,0.205
'7:08.342',0.385,0.220
'7:08.344',0.405,0.230
'7:08.347',0.425,0.230
'7:08.350',0.430,0.220
'7:08.353',0.430,0.220
'7:08.356',0.430,0.230
'7:08.358',0.460,0.240
'7:08.361',0.480,0.250
'7:08.364',0.490,0.250
'7:08.367',0.500,0.240
'7:08.369',0.470,0.245
'7:08.372',0.495,0.235
'7:08.375',0.520,0.250
'7:08.378',0.545,0.265
'7:08.381',0.575,0.265
'7:08.383',0.585,0.260
'7:08.386',0.575,0.255
'7:08.389',0.600,0.275
'7:08.392',0.625,0.275
'7:08.394',0.650,0.285
'7:08.397',0.680,0.285
'7:08.400',0.695,0.280
'7:08.403',0.710,0.280
'7:08.406',0.725,0.290
'7:08.408',0.750,0.300
'7:08.411',0.790,0.305
'7:08.414',0.810,0.310
'7:08.417',0.825,0.300
'7:08.419',0.820,0.290
'7:08.422',0.850,0.300
'7:08.425',0.870,0.315
'7:08.428',0.890,0.330
'7:08.431',0.920,0.330
'7:08.433',0.930,0.335
'7:08.436',0.925,0.330
'7:08.439',0.945,0.350
'7:08.442',0.960,0.360
'7:08.444',0.970,0.380
'7:08.447',0.975,0.375
'7:08.450',0.975,0.370
'7:08.453',0.950,0.365
'7:08.456',0.930,0.375
'7:08.458',0.905,0.375
'7:08.461',0.915,0.385
'7:08.464',0.925,0.395
'7:08.467',0.900,0.395
'7:08.469',0.895,0.395
'7:08.472',0.875,0.400
'7:08.475',0.870,0.425
'7:08.478',0.870,0.430
'7:08.481',0.835,0.430
'7:08.483',0.825,0.420
'7:08.486',0.770,0.405
'7:08.489',0.725,0.405
'7:08.492',0.695,0.420
'7:08.494',0.685,0.425
'7:08.497',0.665,0.425
'7:08.500',0.620,0.405
'7:08.503',0.570,0.400
'7:08.506',0.535,0.390
'7:08.508',0.520,0.390
'7:08.511',0.490,0.380
'7:08.514',0.445,0.380
'7:08.517',0.395,0.355
'7:08.519',0.350,0.335
'7:08.522',0.320,0.340
'7:08.525',0.295,0.330
'7:08.528',0.285,0.325
'7:08.531',0.250,0.315
'7:08.533',0.205,0.280
'7:08.536',0.155,0.265
'7:08.539',0.140,0.250
'7:08.542',0.120,0.245
'7:08.544',0.105,0.245
'7:08.547',0.105,0.225
'7:08.550',0.075,0.205
'7:08.553',0.035,0.185
'7:08.556',0.030,0.185
'7:08.558',0.020,0.180
'7:08.561',0.025,0.185
'7:08.564',0.015,0.170
'7:08.567',-0.010,0.145
'7:08.569',-0.025,0.135
'7:08.572',-0.035,0.125
'7:08.575',-0.035,0.130
'7:08.578',-0.035,0.130
'7:08.581',-0.030,0.125
'7:08.583',-0.045,0.115
'7:08.586',-0.065,0.110
'7:08.589',-0.065,0.105
'7:08.592',-0.065,0.115
'7:08.594',-0.050,0.115
'7:08.597',-0.045,0.115
'7:08.600',-0.065,0.110
'7:08.603',-0.080,0.100
'7:08.606',-0.100,0.100
'7:08.608',-0.095,0.115
'7:08.611',-0.070,0.115
'7:08.614',-0.095,0.115
'7:08.617',-0.090,0.105
'7:08.619',-0.100,0.095
'7:08.622',-0.100,0.100
'7:08.625',-0.105,0.105
'7:08.628',-0.085,0.110
'7:08.631',-0.075,0.105
'7:08.633',-0.100,0.110
'7:08.636',-0.100,0.110
'7:08.639',-0.105,0.110
'7:08.642',-0.105,0.125
'7:08.644',-0.085,0.135
'7:08.647',-0.075,0.130
'7:08.650',-0.090,0.125
'7:08.653',-0.110,0.120
'7:08.656',-0.110,0.125
'7:08.658',-0.105,0.130
'7:08.661',-0.095,0.135
'7:08.664',-0.090,0.130
'7:08.667',-0.115,0.125
'7:08.669',-0.125,0.125
'7:08.672',-0.130,0.120
'7:08.675',-0.115,0.135
'7:08.678',-0.125,0.135
'7:08.681',-0.115,0.130
'7:08.683',-0.125,0.130
'7:08.686',-0.145,0.120
'7:08.689',-0.155,0.120
'7:08.692',-0.160,0.125
'7:08.694',-0.155,0.130
'7:08.697',-0.155,0.125
'7:08.700',-0.145,0.115
'7:08.703',-0.175,0.100
'7:08.706',-0.175,0.095
'7:08.708',-0.165,0.105
'7:08.711',-0.145,0.115
'7:08.714',-0.155,0.110
'7:08.717',-0.175,0.100
'7:08.719',-0.170,0.100
'7:08.722',-0.155,0.095
'7:08.725',-0.155,0.110
'7:08.728',-0.130,0.105
'7:08.731',-0.130,0.090
'7:08.733',-0.140,0.085
'7:08.736',-0.160,0.085
'7:08.739',-0.175,0.095
'7:08.742',-0.180,0.115
'7:08.744',-0.175,0.120
'7:08.747',-0.175,0.110
'7:08.750',-0.185,0.090
'7:08.753',-0.215,0.080
'7:08.756',-0.225,0.080
'7:08.758',-0.215,0.075
'7:08.761',-0.210,0.085
'7:08.764',-0.210,0.085
'7:08.767',-0.225,0.075
'7:08.769',-0.245,0.075
'7:08.772',-0.255,0.090
'7:08.775',-0.220,0.090
'7:08.778',-0.205,0.100
'7:08.781',-0.185,0.105
'7:08.783',-0.190,0.105
'7:08.786',-0.195,0.100
'7:08.789',-0.195,0.105
'7:08.792',-0.200,0.105
'7:08.794',-0.185,0.100
'7:08.797',-0.185,0.090
'7:08.800',-0.185,0.090
'7:08.803',-0.185,0.085
'7:08.806',-0.200,0.085
'7:08.808',-0.185,0.100
'7:08.811',-0.170,0.105
'7:08.814',-0.160,0.095
'7:08.817',-0.185,0.095
'7:08.819',-0.180,0.080
'7:08.822',-0.200,0.095
'7:08.825',-0.170,0.095
'7:08.828',-0.155,0.105
'7:08.831',-0.155,0.100
'7:08.833',-0.165,0.095
'7:08.836',-0.180,0.090
'7:08.839',-0.185,0.085
'7:08.842',-0.190,0.095
'7:08.844',-0.165,0.105
'7:08.847',-0.155,0.100
'7:08.850',-0.165,0.090
'7:08.853',-0.185,0.080
'7:08.856',-0.175,0.085
'7:08.858',-0.180,0.090
'7:08.861',-0.165,0.095
'7:08.864',-0.160,0.080
'7:08.867',-0.165,0.070
'7:08.869',-0.170,0.060
'7:08.872',-0.180,0.065
'7:08.875',-0.165,0.065
'7:08.878',-0.185,0.075
'7:08.881',-0.160,0.065
'7:08.883',-0.175,0.060
'7:08.886',-0.190,0.050
'7:08.889',-0.200,0.060
'7:08.892',-0.195,0.065
'7:08.894',-0.175,0.070
'7:08.897',-0.190,0.065
'7:08.900',-0.200,0.050
'7:08.903',-0.205,0.045
'7:08.906',-0.220,0.045
'7:08.908',-0.205,0.050
'7:08.911',-0.210,0.060
'7:08.914',-0.220,0.055
'7:08.917',-0.250,0.050
'7:08.919',-0.255,0.045
'7:08.922',-0.245,0.050
'7:08.925',-0.215,0.060
'7:08.928',-0.205,0.060
'7:08.931',-0.180,0.065
'7:08.933',-0.180,0.055
'7:08.936',-0.185,0.055
'7:08.939',-0.175,0.055
'7:08.942',-0.155,0.065
'7:08.944',-0.145,0.065
'7:08.947',-0.130,0.070
'7:08.950',-0.100,0.070
'7:08.953',-0.065,0.055
'7:08.956',0.035,0.060
'7:08.958',0.270,0.055
'7:08.961',0.655,0.065
'7:08.964',1.040,0.060
'7:08.967',1.210,0.035
'7:08.969',1.150,-0.005
'7:08.972',0.955,-0.035
'7:08.975',0.805,-0.100
'7:08.978',0.755,-0.230
'7:08.981',0.705,-0.410
'7:08.983',0.635,-0.575
'7:08.986',0.545,-0.645
'7:08.989',0.455,-0.585
'7:08.992',0.370,-0.505
'7:08.994',0.295,-0.465
'7:08.997',0.205,-0.450
'7:09.000',0.075,-0.445
'7:09.003',-0.050,-0.450
'7:09.006',-0.145,-0.435
'7:09.008',-0.270,-0.430
'7:09.011',-0.375,-0.420
'7:09.014',-0.485,-0.425
'7:09.017',-0.615,-0.440
'7:09.019',-0.750,-0.460
'7:09.022',-0.890,-0.460
'7:09.025',-1.020,-0.465
'7:09.028',-1.140,-0.465
'7:09.031',-1.270,-0.470
'7:09.033',-1.400,-0.485
'7:09.036',-1.510,-0.485
'7:09.039',-1.600,-0.475
'7:09.042',-1.685,-0.475
'7:09.044',-1.760,-0.475
'7:09.047',-1.820,-0.485
'7:09.050',-1.895,-0.495
'7:09.053',-1.940,-0.515
'7:09.056',-1.965,-0.515
'7:09.058',-1.965,-0.515
'7:09.061',-1.935,-0.510
'7:09.064',-1.875,-0.525
'7:09.067',-1.840,-0.545
'7:09.069',-1.785,-0.565
'7:09.072',-1.720,-0.580
'7:09.075',-1.620,-0.595
'7:09.078',-1.485,-0.600
'7:09.081',-1.335,-0.610
'7:09.083',-1.185,-0.645
'7:09.086',-1.045,-0.645
'7:09.089',-0.925,-0.620
'7:09.092',-0.835,-0.590
'7:09.094',-0.785,-0.555
'7:09.097',-0.760,-0.525
'7:09.100',-0.730,-0.515
'7:09.103',-0.710,-0.500
'7:09.106',-0.645,-0.470
'7:09.108',-0.590,-0.435
'7:09.111',-0.510,-0.405
'7:09.114',-0.445,-0.370
'7:09.117',-0.390,-0.340
'7:09.119',-0.335,-0.305
'7:09.122',-0.270,-0.260
'7:09.125',-0.185,-0.210
'7:09.128',-0.105,-0.160
'7:09.131',-0.065,-0.120
'7:09.133',-0.010,-0.085
'7:09.136',0.025,-0.045
'7:09.139',0.040,-0.010
'7:09.142',0.090,0.040
'7:09.144',0.120,0.075
'7:09.147',0.145,0.090
'7:09.150',0.155,0.100
'7:09.153',0.160,0.100
'7:09.156',0.165,0.120
'7:09.158',0.190,0.135
'7:09.161',0.200,0.150
'7:09.164',0.220,0.155
'7:09.167',0.220,0.145
'7:09.169',0.215,0.140
'7:09.172',0.230,0.140
'7:09.175',0.225,0.145
'7:09.178',0.255,0.170
'7:09.181',0.260,0.160
'7:09.183',0.260,0.155
'7:09.186',0.250,0.150
'7:09.189',0.270,0.150
'7:09.192',0.275,0.165
'7:09.194',0.275,0.170
'7:09.197',0.295,0.170
'7:09.200',0.270,0.170
'7:09.203',0.260,0.170
'7:09.206',0.250,0.185
'7:09.208',0.275,0.195
'7:09.211',0.305,0.210
'7:09.214',0.325,0.225
'7:09.217',0.320,0.210
'7:09.219',0.320,0.210
'7:09.222',0.315,0.225
'7:09.225',0.340,0.240
'7:09.228',0.375,0.245
'7:09.231',0.395,0.245
'7:09.233',0.395,0.245
'7:09.236',0.400,0.240
'7:09.239',0.410,0.255
'7:09.242',0.415,0.265
'7:09.244',0.455,0.275
'7:09.247',0.475,0.280
'7:09.250',0.480,0.280
'7:09.253',0.495,0.275
'7:09.256',0.505,0.285
'7:09.258',0.515,0.295
'7:09.261',0.555,0.320
'7:09.264',0.585,0.310
'7:09.267',0.585,0.305
'7:09.269',0.570,0.315
'7:09.272',0.590,0.325
'7:09.275',0.625,0.335
'7:09.278',0.655,0.350
'7:09.281',0.660,0.350
'7:09.283',0.680,0.350
'7:09.286',0.705,0.350
'7:09.289',0.725,0.365
'7:09.292',0.745,0.375
'7:09.294',0.785,0.385
'7:09.297',0.810,0.380
'7:09.300',0.820,0.380
'7:09.303',0.815,0.375
'7:09.306',0.820,0.390
'7:09.308',0.840,0.400
'7:09.311',0.855,0.410
'7:09.314',0.885,0.410
'7:09.317',0.870,0.395
'7:09.319',0.860,0.400
'7:09.322',0.860,0.395
'7:09.325',0.865,0.420
'7:09.328',0.875,0.420
'7:09.331',0.860,0.415
'7:09.333',0.845,0.415
'7:09.336',0.805,0.410
'7:09.339',0.780,0.425
'7:09.342',0.775,0.430
'7:09.344',0.755,0.430
'7:09.347',0.735,0.425
'7:09.350',0.680,0.425
'7:09.353',0.635,0.430
'7:09.356',0.610,0.425
'7:09.358',0.585,0.440
'7:09.361',0.575,0.440
'7:09.364',0.555,0.435
'7:09.367',0.510,0.425
'7:09.369',0.445,0.415
'7:09.372',0.395,0.410
'7:09.375',0.375,0.445
'7:09.378',0.350,0.440
'7:09.381',0.325,0.415
'7:09.383',0.290,0.400
'7:09.386',0.225,0.375
'7:09.389',0.200,0.370
'7:09.392',0.180,0.370
'7:09.394',0.150,0.365
'7:09.397',0.140,0.350
'7:09.400',0.085,0.325
'7:09.403',0.050,0.310
'7:09.406',0.020,0.295
'7:09.408',0.010,0.290
'7:09.411',-0.005,0.280
'7:09.414',-0.005,0.265
'7:09.417',-0.035,0.245
'7:09.419',-0.045,0.220
'7:09.422',-0.060,0.225
'7:09.425',-0.065,0.215
'7:09.428',-0.055,0.210
'7:09.431',-0.060,0.195
'7:09.433',-0.080,0.175
'7:09.436',-0.100,0.165
'7:09.439',-0.115,0.155
'7:09.442',-0.105,0.160
'7:09.444',-0.085,0.170
'7:09.447',-0.080,0.160
'7:09.450',-0.095,0.140
'7:09.453',-0.105,0.130
'7:09.456',-0.115,0.130
'7:09.458',-0.115,0.140
'7:09.461',-0.120,0.150
'7:09.464',-0.130,0.135
'7:09.467',-0.140,0.135
'7:09.469',-0.155,0.120
'7:09.472',-0.180,0.130
'7:09.475',-0.170,0.140
'7:09.478',-0.150,0.155
'7:09.481',-0.150,0.145
'7:09.483',-0.160,0.135
'7:09.486',-0.180,0.130
'7:09.489',-0.185,0.130
'7:09.492',-0.180,0.140
'7:09.494',-0.170,0.150
'7:09.497',-0.170,0.150
'7:09.500',-0.175,0.155
'7:09.503',-0.180,0.155
'7:09.506',-0.180,0.160
'7:09.508',-0.180,0.170
'7:09.511',-0.175,0.175
'7:09.514',-0.175,0.180
'7:09.517',-0.185,0.165
'7:09.519',-0.190,0.155
'7:09.522',-0.195,0.160
'7:09.525',-0.195,0.160
'7:09.528',-0.195,0.165
'7:09.531',-0.190,0.170
'7:09.533',-0.210,0.165
'7:09.536',-0.230,0.150
'7:09.539',-0.255,0.160
'7:09.542',-0.240,0.175
'7:09.544',-0.230,0.175
'7:09.547',-0.235,0.165
'7:09.550',-0.230,0.160
'7:09.553',-0.245,0.150
'7:09.556',-0.255,0.155
'7:09.558',-0.255,0.155
'7:09.561',-0.225,0.150
'7:09.564',-0.230,0.140
'7:09.567',-0.240,0.120
'7:09.569',-0.230,0.115
'7:09.572',-0.240,0.115
'7:09.575',-0.240,0.125
'7:09.578',-0.220,0.125
'7:09.581',-0.220,0.110
'7:09.583',-0.220,0.105
'7:09.586',-0.255,0.100
'7:09.589',-0.240,0.100
'7:09.592',-0.235,0.100
'7:09.594',-0.235,0.115
'7:09.597',-0.255,0.110
'7:09.600',-0.265,0.105
'7:09.603',-0.285,0.095
'7:09.606',-0.290,0.100
'7:09.608',-0.275,0.110
'7:09.611',-0.265,0.120
'7:09.614',-0.255,0.105
'7:09.617',-0.270,0.110
'7:09.619',-0.280,0.100
'7:09.622',-0.285,0.115
'7:09.625',-0.275,0.120
'7:09.628',-0.260,0.115
'7:09.631',-0.280,0.115
'7:09.633',-0.280,0.120
'7:09.636',-0.300,0.115
'7:09.639',-0.290,0.125
'7:09.642',-0.275,0.135
'7:09.644',-0.265,0.140
'7:09.647',-0.270,0.140
'7:09.650',-0.290,0.130
'7:09.653',-0.305,0.120
'7:09.656',-0.315,0.135
'7:09.658',-0.295,0.140
'7:09.661',-0.275,0.140
'7:09.664',-0.290,0.130
'7:09.667',-0.290,0.130
'7:09.669',-0.310,0.125
'7:09.672',-0.315,0.140
'7:09.675',-0.305,0.145
'7:09.678',-0.300,0.145
'7:09.681',-0.310,0.140
'7:09.683',-0.320,0.130
'7:09.686',-0.320,0.115
'7:09.689',-0.320,0.120
'7:09.692',-0.310,0.125
'7:09.694',-0.305,0.130
'7:09.697',-0.305,0.120
'7:09.700',-0.305,0.110
'7:09.703',-0.320,0.095
'7:09.706',-0.330,0.105
'7:09.708',-0.310,0.115
'7:09.711',-0.310,0.115
'7:09.714',-0.290,0.110
'7:09.717',-0.305,0.100
'7:09.719',-0.305,0.085
'7:09.722',-0.310,0.095
'7:09.725',-0.305,0.105
'7:09.728',-0.290,0.105
'7:09.731',-0.285,0.095
'7:09.733',-0.290,0.080
'7:09.736',-0.310,0.080
'7:09.739',-0.310,0.085
'7:09.742',-0.320,0.095
'7:09.744',-0.325,0.100
'7:09.747',-0.320,0.095
'7:09.750',-0.335,0.085
'7:09.753',-0.335,0.085
'7:09.756',-0.325,0.090
'7:09.758',-0.295,0.095
'7:09.761',-0.275,0.105
'7:09.764',-0.280,0.105
'7:09.767',-0.300,0.085
'7:09.769',-0.320,0.085
'7:09.772',-0.320,0.090
'7:09.775',-0.305,0.105
'7:09.778',-0.290,0.110
'7:09.781',-0.285,0.105
'7:09.783',-0.280,0.100
'7:09.786',-0.300,0.095
'7:09.789',-0.295,0.095
'7:09.792',-0.280,0.105
'7:09.794',-0.230,0.100
'7:09.797',-0.190,0.100
'7:09.800',-0.110,0.085
'7:09.803',0.070,0.085
'7:09.806',0.425,0.090
'7:09.808',0.830,0.085
'7:09.811',1.060,0.065
'7:09.814',1.015,0.025
'7:09.817',0.810,-0.045
'7:09.819',0.625,-0.150
'7:09.822',0.540,-0.335
'7:09.825',0.510,-0.565
'7:09.828',0.480,-0.720
'7:09.831',0.400,-0.770
'7:09.833',0.310,-0.685
'7:09.836',0.225,-0.615
'7:09.839',0.130,-0.560
'7:09.842',0.040,-0.525
'7:09.844',-0.045,-0.485
'7:09.847',-0.160,-0.470
'7:09.850',-0.295,-0.465
'7:09.853',-0.420,-0.465
'7:09.856',-0.550,-0.475
'7:09.858',-0.665,-0.475
'7:09.861',-0.795,-0.490
'7:09.864',-0.925,-0.515
'7:09.867',-1.080,-0.540
'7:09.869',-1.245,-0.550
'7:09.872',-1.380,-0.540
'7:09.875',-1.525,-0.535
'7:09.878',-1.615,-0.530
'7:09.881',-1.715,-0.540
'7:09.883',-1.815,-0.555
'7:09.886',-1.910,-0.580
'7:09.889',-1.995,-0.580
'7:09.892',-2.060,-0.575
'7:09.894',-2.095,-0.570
'7:09.897',-2.115,-0.580
'7:09.900',-2.135,-0.585
'7:09.903',-2.150,-0.600
'7:09.906',-2.120,-0.615
'7:09.908',-2.070,-0.615
'7:09.911',-2.015,-0.610
'7:09.914',-1.965,-0.630
'7:09.917',-1.935,-0.665
'7:09.919',-1.860,-0.690
'7:09.922',-1.765,-0.700
'7:09.925',-1.620,-0.695
'7:09.928',-1.470,-0.695
'7:09.931',-1.330,-0.700
'7:09.933',-1.185,-0.695
'7:09.936',-1.105,-0.690
'7:09.939',-1.050,-0.635
'7:09.942',-1.010,-0.600
'7:09.944',-0.975,-0.565
'7:09.947',-0.945,-0.565
'7:09.950',-0.900,-0.545
'7:09.953',-0.865,-0.510
'7:09.956',-0.800,-0.480
'7:09.958',-0.730,-0.430
'7:09.961',-0.660,-0.390
'7:09.964',-0.575,-0.350
'7:09.967',-0.550,-0.320
'7:09.969',-0.495,-0.275
'7:09.972',-0.430,-0.230
'7:09.975',-0.355,-0.170
'7:09.978',-0.290,-0.125
'7:09.981',-0.245,-0.085
'7:09.983',-0.210,-0.055
'7:09.986',-0.200,-0.020
'7:09.989',-0.185,0.020
'7:09.992',-0.155,0.060
'7:09.994',-0.120,0.085
'7:09.997',-0.105,0.100
'7:10.000',-0.095,0.115
'7:10.003',-0.105,0.115
'7:10.006',-0.095,0.125
'7:10.008',-0.070,0.145
'7:10.011',-0.045,0.165
'7:10.014',-0.035,0.155
'7:10.017',-0.040,0.150
'7:10.019',-0.050,0.165
'7:10.022',-0.050,0.175
'7:10.025',-0.035,0.200
'7:10.028',-0.025,0.210
'7:10.031',-0.020,0.210
'7:10.033',-0.015,0.200
'7:10.036',-0.015,0.200
'7:10.039',-0.025,0.210
'7:10.042',0.000,0.230
'7:10.044',0.030,0.245
'7:10.047',0.035,0.250
'7:10.050',0.030,0.240
'7:10.053',0.035,0.240
'7:10.056',0.030,0.260
'7:10.058',0.050,0.275
'7:10.061',0.075,0.290
'7:10.064',0.095,0.305
'7:10.067',0.105,0.300
'7:10.069',0.105,0.300
'7:10.072',0.115,0.310
'7:10.075',0.135,0.325
'7:10.078',0.140,0.335
'7:10.081',0.155,0.325
'7:10.083',0.155,0.330
'7:10.086',0.160,0.325
'7:10.089',0.155,0.340
'7:10.092',0.195,0.340
'7:10.094',0.205,0.355
'7:10.097',0.210,0.355
'7:10.100',0.215,0.335
'7:10.103',0.205,0.335
'7:10.106',0.225,0.340
'7:10.108',0.250,0.360
'7:10.111',0.270,0.370
'7:10.114',0.290,0.370
'7:10.117',0.295,0.355
'7:10.119',0.305,0.340
'7:10.122',0.340,0.355
'7:10.125',0.355,0.360
'7:10.128',0.395,0.365
'7:10.131',0.415,0.360
'7:10.133',0.430,0.370
'7:10.136',0.450,0.360
'7:10.139',0.465,0.365
'7:10.142',0.500,0.380
'7:10.144',0.540,0.390
'7:10.147',0.555,0.395
'7:10.150',0.555,0.375
'7:10.153',0.570,0.375
'7:10.156',0.575,0.390
'7:10.158',0.590,0.405
'7:10.161',0.615,0.415
'7:10.164',0.635,0.420
'7:10.167',0.615,0.420
'7:10.169',0.600,0.420
'7:10.172',0.610,0.430
'7:10.175',0.630,0.445
'7:10.178',0.635,0.455
'7:10.181',0.635,0.465
'7:10.183',0.610,0.470
'7:10.186',0.600,0.470
'7:10.189',0.585,0.485
'7:10.192',0.585,0.505
'7:10.194',0.565,0.510
'7:10.197',0.550,0.515
'7:10.200',0.510,0.510
'7:10.203',0.480,0.515
'7:10.206',0.445,0.515
'7:10.208',0.425,0.515
'7:10.211',0.405,0.525
'7:10.214',0.380,0.520
'7:10.217',0.330,0.505
'7:10.219',0.270,0.495
'7:10.222',0.240,0.490
'7:10.225',0.215,0.490
'7:10.228',0.185,0.490
'7:10.231',0.140,0.475
'7:10.233',0.090,0.465
'7:10.236',0.040,0.440
'7:10.239',-0.005,0.435
'7:10.242',-0.035,0.435
'7:10.244',-0.045,0.430
'7:10.247',-0.100,0.410
'7:10.250',-0.135,0.375
'7:10.253',-0.185,0.350
'7:10.256',-0.210,0.330
'7:10.258',-0.210,0.320
'7:10.261',-0.215,0.320
'7:10.264',-0.245,0.295
'7:10.267',-0.275,0.275
'7:10.269',-0.310,0.240
'7:10.272',-0.330,0.235
'7:10.275',-0.335,0.215
'7:10.278',-0.320,0.220
'7:10.281',-0.335,0.215
'7:10.283',-0.355,0.190
'7:10.286',-0.385,0.160
'7:10.289',-0.395,0.160
'7:10.292',-0.390,0.160
'7:10.294',-0.380,0.175
'7:10.297',-0.385,0.170
'7:10.300',-0.405,0.150
'7:10.303',-0.420,0.135
'7:10.306',-0.430,0.135
'7:10.308',-0.425,0.150
'7:10.311',-0.420,0.165
'7:10.314',-0.415,0.155
'7:10.317',-0.445,0.145
'7:10.319',-0.445,0.145
'7:10.322',-0.460,0.155
'7:10.325',-0.440,0.155
'7:10.328',-0.445,0.175
'7:10.331',-0.445,0.165
'7:10.333',-0.430,0.165
'7:10.336',-0.450,0.160
'7:10.339',-0.455,0.160
'7:10.342',-0.450,0.180
'7:10.344',-0.455,0.180
'7:10.347',-0.465,0.185
'7:10.350',-0.475,0.185
'7:10.353',-0.500,0.185
'7:10.356',-0.490,0.180
'7:10.358',-0.470,0.190
'7:10.361',-0.450,0.190
'7:10.364',-0.455,0.190
'7:10.367',-0.465,0.185
'7:10.369',-0.475,0.175
'7:10.372',-0.495,0.180
'7:10.375',-0.485,0.190
'7:10.378',-0.480,0.210
'7:10.381',-0.480,0.205
'7:10.383',-0.490,0.195
'7:10.386',-0.515,0.180
'7:10.389',-0.515,0.185
'7:10.392',-0.545,0.190
'7:10.394',-0.515,0.190
'7:10.397',-0.515,0.170
'7:10.400',-0.525,0.170
'7:10.403',-0.545,0.150
'7:10.406',-0.535,0.155
'7:10.408',-0.515,0.165
'7:10.411',-0.510,0.170
'7:10.414',-0.515,0.160
'7:10.417',-0.515,0.140
'7:10.419',-0.535,0.125
'7:10.422',-0.540,0.120
'7:10.425',-0.530,0.130
'7:10.428',-0.520,0.140
'7:10.431',-0.530,0.130
'7:10.433',-0.545,0.105
'7:10.436',-0.550,0.110
'7:10.439',-0.575,0.110
'7:10.442',-0.580,0.130
'7:10.444',-0.575,0.140
'7:10.447',-0.560,0.135
'7:10.450',-0.565,0.130
'7:10.453',-0.590,0.115
'7:10.456',-0.590,0.130
'7:10.458',-0.575,0.145
'7:10.461',-0.565,0.155
'7:10.464',-0.555,0.140
'7:10.467',-0.560,0.130
'7:10.469',-0.595,0.120
'7:10.472',-0.595,0.130
'7:10.475',-0.585,0.150
'7:10.478',-0.580,0.155
'7:10.481',-0.585,0.150
'7:10.483',-0.595,0.150
'7:10.486',-0.615,0.150
'7:10.489',-0.625,0.165
'7:10.492',-0.605,0.165
'7:10.494',-0.600,0.185
'7:10.497',-0.610,0.175
'7:10.500',-0.615,0.165
'7:10.503',-0.625,0.150
'7:10.506',-0.630,0.145
'7:10.508',-0.610,0.155
'7:10.511',-0.605,0.170
'7:10.514',-0.595,0.165
'7:10.517',-0.605,0.155
'7:10.519',-0.610,0.140
'7:10.522',-0.610,0.145
'7:10.525',-0.605,0.145
'7:10.528',-0.585,0.155
'7:10.531',-0.590,0.150
'7:10.533',-0.615,0.135
'7:10.536',-0.620,0.130
'7:10.539',-0.610,0.100
'7:10.542',-0.595,0.105
'7:10.544',-0.575,0.110
'7:10.547',-0.560,0.095
'7:10.550',-0.560,0.100
'7:10.553',-0.570,0.085
'7:10.556',-0.545,0.080
'7:10.558',-0.515,0.090
'7:10.561',-0.465,0.080
'7:10.564',-0.415,0.080
'7:10.567',-0.385,0.085
'7:10.569',-0.360,0.070
'7:10.572',-0.320,0.080
'7:10.575',-0.270,0.075
'7:10.578',-0.175,0.075
'7:10.581',-0.080,0.070
'7:10.583',0.015,0.055
'7:10.586',0.060,0.045
'7:10.589',0.145,0.060
'7:10.592',0.235,0.055
'7:10.594',0.335,0.065
'7:10.597',0.425,0.060
'7:10.600',0.485,0.070
'7:10.603',0.565,0.085
'7:10.606',0.640,0.070
'7:10.608',0.700,0.090
'7:10.611',0.770,0.130
'7:10.614',0.825,0.130
'7:10.617',0.860,0.135
'7:10.619',0.910,0.145
'7:10.622',0.955,0.165
'7:10.625',0.995,0.185
'7:10.628',1.065,0.225
'7:10.631',1.115,0.235
'7:10.633',1.165,0.260
'7:10.636',1.205,0.280
'7:10.639',1.255,0.315
'7:10.642',1.305,0.345
'7:10.644',1.335,0.385
'7:10.647',1.345,0.415
'7:10.650',1.335,0.435
'7:10.653',1.315,0.430
'7:10.656',1.325,0.460
'7:10.658',1.310,0.530
'7:10.661',1.245,0.565
'7:10.664',1.150,0.595
'7:10.667',1.130,0.590
'7:10.669',1.250,0.580
'7:10.672',1.390,0.560
'7:10.675',1.330,0.525
'7:10.678',1.105,0.450
'7:10.681',0.805,0.320
'7:10.683',0.580,0.115
'7:10.686',0.415,-0.150
'7:10.689',0.315,-0.370
'7:10.692',0.230,-0.500
'7:10.694',0.150,-0.450
'7:10.697',0.085,-0.350
'7:10.700',-0.005,-0.315
'7:10.703',-0.090,-0.320
'7:10.706',-0.200,-0.325
'7:10.708',-0.270,-0.310
'7:10.711',-0.335,-0.295
'7:10.714',-0.395,-0.310
'7:10.717',-0.480,-0.315
'7:10.719',-0.550,-0.335
'7:10.722',-0.575,-0.325
'7:10.725',-0.625,-0.315
'7:10.728',-0.630,-0.310
'7:10.731',-0.670,-0.305
'7:10.733',-0.700,-0.310
'7:10.736',-0.750,-0.310
'7:10.739',-0.785,-0.295
'7:10.742',-0.800,-0.275
'7:10.744',-0.835,-0.260
'7:10.747',-0.875,-0.250
'7:10.750',-0.920,-0.240
'7:10.753',-0.970,-0.245
'7:10.756',-1.010,-0.220
'7:10.758',-1.020,-0.205
'7:10.761',-1.030,-0.185
'7:10.764',-1.065,-0.190
'7:10.767',-1.105,-0.175
'7:10.769',-1.135,-0.170
'7:10.772',-1.165,-0.170
'7:10.775',-1.180,-0.150
'7:10.778',-1.185,-0.135
'7:10.781',-1.210,-0.130
'7:10.783',-1.260,-0.140
'7:10.786',-1.315,-0.135
'7:10.789',-1.340,-0.115
'7:10.792',-1.370,-0.115
'7:10.794',-1.380,-0.105
'7:10.797',-1.405,-0.110
'7:10.800',-1.440,-0.115
'7:10.803',-1.475,-0.120
'7:10.806',-1.505,-0.115
'7:10.808',-1.540,-0.100
'7:10.811',-1.560,-0.095
'7:10.814',-1.590,-0.095
'7:10.817',-1.625,-0.110
'7:10.819',-1.680,-0.120
'7:10.822',-1.715,-0.115
'7:10.825',-1.750,-0.110
'7:10.828',-1.760,-0.105
'7:10.831',-1.790,-0.115
'7:10.833',-1.840,-0.115
'7:10.836',-1.890,-0.130
'7:10.839',-1.930,-0.125
'7:10.842',-1.950,-0.115
'7:10.844',-1.955,-0.110
'7:10.847',-1.990,-0.115
'7:10.850',-2.035,-0.125
'7:10.853',-2.070,-0.140
'7:10.856',-2.110,-0.140
'7:10.858',-2.120,-0.145
'7:10.861',-2.125,-0.135
'7:10.864',-2.155,-0.150
'7:10.867',-2.185,-0.160
'7:10.869',-2.220,-0.180
'7:10.872',-2.265,-0.175
'7:10.875',-2.260,-0.170
'7:10.878',-2.255,-0.165
'7:10.881',-2.270,-0.175
'7:10.883',-2.310,-0.185
'7:10.886',-2.330,-0.195
'7:10.889',-2.345,-0.190
'7:10.892',-2.350,-0.175
'7:10.894',-2.345,-0.175
'7:10.897',-2.355,-0.180
'7:10.900',-2.370,-0.190
'7:10.903',-2.395,-0.200
'7:10.906',-2.400,-0.195
'7:10.908',-2.400,-0.190
'7:10.911',-2.390,-0.185
'7:10.914',-2.395,-0.185
'7:10.917',-2.400,-0.195
'7:10.919',-2.415,-0.205
'7:10.922',-2.415,-0.200
'7:10.925',-2.385,-0.200
'7:10.928',-2.360,-0.190
'7:10.931',-2.350,-0.190
'7:10.933',-2.340,-0.200
'7:10.936',-2.350,-0.200
'7:10.939',-2.345,-0.195
'7:10.942',-2.320,-0.180
'7:10.944',-2.280,-0.170
'7:10.947',-2.260,-0.175
'7:10.950',-2.265,-0.175
'7:10.953',-2.250,-0.175
'7:10.956',-2.225,-0.165
'7:10.958',-2.195,-0.150
'7:10.961',-2.155,-0.145
'7:10.964',-2.135,-0.140
'7:10.967',-2.125,-0.140
'7:10.969',-2.115,-0.145
'7:10.972',-2.085,-0.135
'7:10.975',-2.065,-0.125
'7:10.978',-2.030,-0.105
'7:10.981',-1.990,-0.095
'7:10.983',-1.970,-0.095
'7:10.986',-1.945,-0.090
'7:10.989',-1.925,-0.075
'7:10.992',-1.880,-0.065
'7:10.994',-1.840,-0.050
'7:10.997',-1.795,-0.050
'7:11.000',-1.780,-0.045
'7:11.003',-1.750,-0.040
'7:11.006',-1.725,-0.035
'7:11.008',-1.690,-0.020
'7:11.011',-1.615,-0.015
'7:11.014',-1.600,-0.010
'7:11.017',-1.565,-0.010
'7:11.019',-1.525,-0.005
'7:11.022',-1.510,0.005
'7:11.025',-1.455,0.015
'7:11.028',-1.415,0.025
'7:11.031',-1.390,0.035
'7:11.033',-1.380,0.035
'7:11.036',-1.390,0.030
'7:11.039',-1.365,0.045
'7:11.042',-1.345,0.050
'7:11.044',-1.310,0.065
'7:11.047',-1.295,0.065
'7:11.050',-1.290,0.060
'7:11.053',-1.280,0.065
'7:11.056',-1.260,0.070
'7:11.058',-1.215,0.085
'7:11.061',-1.210,0.085
'7:11.064',-1.180,0.085
'7:11.067',-1.165,0.085
'7:11.069',-1.150,0.085
'7:11.072',-1.110,0.085
'7:11.075',-1.040,0.095
'7:11.078',-0.960,0.100
'7:11.081',-0.890,0.100
'7:11.083',-0.835,0.090
'7:11.086',-0.740,0.080
'7:11.089',-0.635,0.080
'7:11.092',-0.505,0.095
'7:11.094',-0.360,0.105
'7:11.097',-0.235,0.115
'7:11.100',-0.125,0.120
'7:11.103',-0.020,0.125
'7:11.106',0.085,0.135
'7:11.108',0.235,0.155
'7:11.111',0.370,0.170
'7:11.114',0.490,0.170
'7:11.117',0.585,0.175
'7:11.119',0.615,0.175
'7:11.122',0.595,0.200
'7:11.125',0.530,0.215
'7:11.128',0.435,0.245
'7:11.131',0.235,0.270
'7:11.133',-0.055,0.300
'7:11.136',-0.400,0.325
'7:11.139',-0.705,0.355
'7:11.142',-0.885,0.400
'7:11.144',-0.945,0.445
'7:11.147',-0.980,0.470
'7:11.150',-1.000,0.510
'7:11.153',-1.015,0.540
'7:11.156',-1.010,0.565
'7:11.158',-1.015,0.575
'7:11.161',-0.995,0.570
'7:11.164',-1.015,0.570
'7:11.167',-1.060,0.555
'7:11.169',-1.085,0.555
'7:11.172',-1.135,0.560
'7:11.175',-1.160,0.570
'7:11.178',-1.170,0.585
'7:11.181',-1.175,0.595
'7:11.183',-1.165,0.605
'7:11.186',-1.145,0.605
'7:11.189',-1.095,0.625
'7:11.192',-1.015,0.635
'7:11.194',-0.905,0.635
'7:11.197',-0.820,0.620
'7:11.200',-0.745,0.600
'7:11.203',-0.665,0.570
'7:11.206',-0.615,0.545
'7:11.208',-0.570,0.515
'7:11.211',-0.540,0.475
'7:11.214',-0.515,0.420
'7:11.217',-0.505,0.355
'7:11.219',-0.500,0.295
'7:11.222',-0.490,0.250
'7:11.225',-0.500,0.210
'7:11.228',-0.465,0.185
'7:11.231',-0.450,0.150
'7:11.233',-0.445,0.115
'7:11.236',-0.460,0.080
'7:11.239',-0.455,0.075
'7:11.242',-0.440,0.060
'7:11.244',-0.420,0.055
'7:11.247',-0.410,0.045
'7:11.250',-0.430,0.035
'7:11.253',-0.435,0.015
'7:11.256',-0.440,0.015
'7:11.258',-0.450,0.020
'7:11.261',-0.420,0.020
'7:11.264',-0.425,0.020
'7:11.267',-0.430,0.000
'7:11.269',-0.435,-0.005
'7:11.272',-0.425,-0.005
'7:11.275',-0.410,-0.005
'7:11.278',-0.390,-0.005
'7:11.281',-0.390,-0.010
'7:11.283',-0.410,-0.020
'7:11.286',-0.420,-0.045
'7:11.289',-0.425,-0.035
'7:11.292',-0.405,-0.030
'7:11.294',-0.395,-0.025
'7:11.297',-0.410,-0.035
'7:11.300',-0.405,-0.040
'7:11.303',-0.420,-0.040
'7:11.306',-0.425,-0.045
'7:11.308',-0.420,-0.040
'7:11.311',-0.400,-0.030
'7:11.314',-0.420,-0.055
'7:11.317',-0.435,-0.065
'7:11.319',-0.435,-0.075
'7:11.322',-0.445,-0.085
'7:11.325',-0.435,-0.075
'7:11.328',-0.420,-0.085
'7:11.331',-0.425,-0.100
'7:11.333',-0.435,-0.105
'7:11.336',-0.445,-0.130
'7:11.339',-0.460,-0.135
'7:11.342',-0.440,-0.140
'7:11.344',-0.415,-0.140
'7:11.347',-0.400,-0.155
'7:11.350',-0.400,-0.175
'7:11.353',-0.405,-0.205
'7:11.356',-0.410,-0.215
'7:11.358',-0.390,-0.220
'7:11.361',-0.350,-0.225
'7:11.364',-0.330,-0.245
'7:11.367',-0.305,-0.265
'7:11.369',-0.315,-0.275
'7:11.372',-0.295,-0.285
'7:11.375',-0.270,-0.280
'7:11.378',-0.250,-0.280
'7:11.381',-0.225,-0.280
'7:11.383',-0.195,-0.300
'7:11.386',-0.210,-0.300
'7:11.389',-0.190,-0.295
'7:11.392',-0.160,-0.290
'7:11.394',-0.135,-0.285
'7:11.397',-0.135,-0.285
'7:11.400',-0.140,-0.285
'7:11.403',-0.155,-0.275
'7:11.406',-0.145,-0.260
'7:11.408',-0.145,-0.245
'7:11.411',-0.130,-0.225
'7:11.414',-0.135,-0.215
'7:11.417',-0.145,-0.210
'7:11.419',-0.135,-0.205
'7:11.422',-0.140,-0.185
'7:11.425',-0.145,-0.175
'7:11.428',-0.140,-0.150
'7:11.431',-0.150,-0.135
'7:11.433',-0.165,-0.130
'7:11.436',-0.195,-0.110
'7:11.439',-0.215,-0.090
'7:11.442',-0.220,-0.065
'7:11.444',-0.220,-0.040
'7:11.447',-0.245,-0.035
'7:11.450',-0.260,-0.025
'7:11.453',-0.290,-0.025
'7:11.456',-0.290,-0.010
'7:11.458',-0.305,0.010
'7:11.461',-0.290,0.035
'7:11.464',-0.300,0.040
'7:11.467',-0.310,0.035
'7:11.469',-0.320,0.040
'7:11.472',-0.340,0.050
'7:11.475',-0.340,0.065
'7:11.478',-0.350,0.070
'7:11.481',-0.340,0.075
'7:11.483',-0.355,0.075
'7:11.486',-0.370,0.075
'7:11.489',-0.375,0.080
'7:11.492',-0.370,0.090
'7:11.494',-0.360,0.105
'7:11.497',-0.360,0.105
'7:11.500',-0.380,0.105
'7:11.503',-0.380,0.105
'7:11.506',-0.365,0.110
'7:11.508',-0.355,0.115
'7:11.511',-0.340,0.125
'7:11.514',-0.335,0.120
'7:11.517',-0.335,0.120
'7:11.519',-0.330,0.110
'7:11.522',-0.330,0.110
'7:11.525',-0.310,0.120
'7:11.528',-0.280,0.125
'7:11.531',-0.265,0.125
'7:11.533',-0.235,0.120
'7:11.536',-0.215,0.110
'7:11.539',-0.185,0.115
'7:11.542',-0.135,0.110
'7:11.544',-0.070,0.115
'7:11.547',-0.005,0.115
'7:11.550',0.040,0.105
'7:11.553',0.065,0.090
'7:11.556',0.095,0.075
'7:11.558',0.130,0.060
'7:11.561',0.175,0.045
'7:11.564',0.205,0.015
'7:11.567',0.255,-0.010
'7:11.569',0.295,-0.035
'7:11.572',0.350,-0.060
'7:11.575',0.415,-0.065
'7:11.578',0.470,-0.090
'7:11.581',0.460,-0.125
'7:11.583',0.430,-0.160
'7:11.586',0.325,-0.195
'7:11.589',0.215,-0.215
'7:11.592',0.130,-0.235
'7:11.594',0.020,-0.240
'7:11.597',-0.020,-0.265
'7:11.600',-0.040,-0.305
'7:11.603',-0.070,-0.320
'7:11.606',-0.120,-0.330
'7:11.608',-0.150,-0.315
'7:11.611',-0.180,-0.295
'7:11.614',-0.210,-0.295
'7:11.617',-0.210,-0.295
'7:11.619',-0.200,-0.285
'7:11.622',-0.200,-0.270
'7:11.625',-0.235,-0.230
'7:11.628',-0.340,-0.210
'7:11.631',-0.465,-0.195
'7:11.633',-0.590,-0.195
'7:11.636',-0.640,-0.175
'7:11.639',-0.615,-0.160
'7:11.642',-0.600,-0.130
'7:11.644',-0.570,-0.090
'7:11.647',-0.570,-0.045
'7:11.650',-0.575,-0.005
'7:11.653',-0.590,0.035
'7:11.656',-0.605,0.080
'7:11.658',-0.575,0.115
'7:11.661',-0.560,0.150
'7:11.664',-0.575,0.170
'7:11.667',-0.580,0.180
'7:11.669',-0.600,0.195
'7:11.672',-0.600,0.205
'7:11.675',-0.590,0.225
'7:11.678',-0.595,0.235
'7:11.681',-0.610,0.245
'7:11.683',-0.635,0.240
'7:11.686',-0.640,0.240
'7:11.689',-0.655,0.250
'7:11.692',-0.645,0.255
'7:11.694',-0.630,0.270
'7:11.697',-0.635,0.265
'7:11.700',-0.660,0.260
'7:11.703',-0.685,0.255
'7:11.706',-0.680,0.255
'7:11.708',-0.680,0.270
'7:11.711',-0.660,0.280
'7:11.714',-0.670,0.275
'7:11.717',-0.690,0.270
'7:11.719',-0.710,0.270
'7:11.722',-0.715,0.285
'7:11.725',-0.725,0.280
'7:11.728',-0.740,0.290
'7:11.731',-0.760,0.290
'7:11.733',-0.780,0.285
'7:11.736',-0.775,0.280
'7:11.739',-0.785,0.280
'7:11.742',-0.775,0.295
'7:11.744',-0.775,0.305
'7:11.747',-0.795,0.310
'7:11.750',-0.820,0.300
'7:11.753',-0.830,0.305
'7:11.756',-0.850,0.310
'7:11.758',-0.855,0.330
'7:11.761',-0.860,0.340
'7:11.764',-0.855,0.335
'7:11.767',-0.875,0.340
'7:11.769',-0.915,0.340
'7:11.772',-0.925,0.345
'7:11.775',-0.920,0.355
'7:11.778',-0.930,0.375
'7:11.781',-0.935,0.375
'7:11.783',-0.960,0.380
'7:11.786',-0.970,0.385
'7:11.789',-0.990,0.400
'7:11.792',-0.985,0.395
'7:11.794',-0.985,0.405
'7:11.797',-0.995,0.410
'7:11.800',-1.025,0.420
'7:11.803',-1.040,0.415
'7:11.806',-1.055,0.420
'7:11.808',-1.050,0.430
'7:11.811',-1.065,0.440
'7:11.814',-1.085,0.445
'7:11.817',-1.095,0.440
'7:11.819',-1.115,0.445
'7:11.822',-1.105,0.450
'7:11.825',-1.085,0.465
'7:11.828',-1.080,0.480
'7:11.831',-1.075,0.475
'7:11.833',-1.105,0.475
'7:11.836',-1.125,0.480
'7:11.839',-1.130,0.465
'7:11.842',-1.130,0.480
'7:11.844',-1.120,0.480
'7:11.847',-1.105,0.475
'7:11.850',-1.110,0.460
'7:11.853',-1.110,0.445
'7:11.856',-1.115,0.455
'7:11.858',-1.105,0.450
'7:11.861',-1.075,0.455
'7:11.864',-1.070,0.440
'7:11.867',-1.065,0.435
'7:11.869',-1.080,0.425
'7:11.872',-1.055,0.415
'7:11.875',-1.040,0.420
'7:11.878',-1.020,0.420
'7:11.881',-1.010,0.415
'7:11.883',-1.005,0.395
'7:11.886',-1.010,0.375
'7:11.889',-1.000,0.375
'7:11.892',-0.975,0.380
'7:11.894',-0.930,0.365
'7:11.897',-0.915,0.345
'7:11.900',-0.885,0.325
'7:11.903',-0.890,0.310
'7:11.906',-0.865,0.300
'7:11.908',-0.840,0.290
'7:11.911',-0.795,0.290
'7:11.914',-0.780,0.280
'7:11.917',-0.765,0.265
'7:11.919',-0.735,0.260
'7:11.922',-0.725,0.260
'7:11.925',-0.690,0.255
'7:11.928',-0.665,0.255
'7:11.931',-0.640,0.240
'7:11.933',-0.625,0.240
'7:11.936',-0.625,0.230
'7:11.939',-0.610,0.235
'7:11.942',-0.585,0.230
'7:11.944',-0.540,0.230
'7:11.947',-0.520,0.215
'7:11.950',-0.505,0.200
'7:11.953',-0.515,0.200
'7:11.956',-0.530,0.210
'7:11.958',-0.505,0.205
'7:11.961',-0.495,0.210
'7:11.964',-0.485,0.205
'7:11.967',-0.455,0.195
'7:11.969',-0.450,0.185
'7:11.972',-0.435,0.185
'7:11.975',-0.415,0.195
'7:11.978',-0.390,0.190
'7:11.981',-0.370,0.185
'7:11.983',-0.375,0.175
'7:11.986',-0.385,0.175
'7:11.989',-0.380,0.175
'7:11.992',-0.360,0.180
'7:11.994',-0.355,0.180
'7:11.997',-0.345,0.180
'7:12.000',-0.355,0.170
'7:12.003',-0.350,0.165
'7:12.006',-0.345,0.160
'7:12.008',-0.340,0.160
'7:12.011',-0.320,0.165
'7:12.014',-0.310,0.160
'7:12.017',-0.320,0.155
'7:12.019',-0.335,0.145
'7:12.022',-0.340,0.155
'7:12.025',-0.325,0.160
'7:12.028',-0.325,0.160
'7:12.031',-0.315,0.150
'7:12.033',-0.315,0.145
'7:12.036',-0.320,0.145
'7:12.039',-0.315,0.155
'7:12.042',-0.305,0.160
'7:12.044',-0.295,0.165
'7:12.047',-0.300,0.150
'7:12.050',-0.295,0.145
'7:12.053',-0.305,0.135
'7:12.056',-0.295,0.130
'7:12.058',-0.275,0.135
'7:12.061',-0.260,0.140
'7:12.064',-0.250,0.135
'7:12.067',-0.270,0.130
'7:12.069',-0.275,0.135
'7:12.072',-0.270,0.150
'7:12.075',-0.270,0.165
'7:12.078',-0.235,0.165
'7:12.081',-0.240,0.160
'7:12.083',-0.250,0.160
'7:12.086',-0.280,0.155
'7:12.089',-0.295,0.160
'7:12.092',-0.280,0.165
'7:12.094',-0.265,0.170
'7:12.097',-0.245,0.160
'7:12.100',-0.250,0.150
'7:12.103',-0.285,0.155
'7:12.106',-0.290,0.155
'7:12.108',-0.305,0.155
'7:12.111',-0.290,0.165
'7:12.114',-0.295,0.160
'7:12.117',-0.315,0.155
'7:12.119',-0.330,0.145
'7:12.122',-0.315,0.140
'7:12.125',-0.305,0.155
'7:12.128',-0.285,0.160
'7:12.131',-0.290,0.155
'7:12.133',-0.300,0.145
'7:12.136',-0.320,0.125
'7:12.139',-0.320,0.120
'7:12.142',-0.305,0.125
'7:12.144',-0.310,0.130
'7:12.147',-0.320,0.125
'7:12.150',-0.365,0.115
'7:12.153',-0.380,0.120
'7:12.156',-0.385,0.115
'7:12.158',-0.355,0.130
'7:12.161',-0.345,0.140
'7:12.164',-0.335,0.140
'7:12.167',-0.335,0.130
'7:12.169',-0.335,0.125
'7:12.172',-0.340,0.130
'7:12.175',-0.325,0.135
'7:12.178',-0.325,0.140
'7:12.181',-0.335,0.140
'7:12.183',-0.350,0.130
'7:12.186',-0.365,0.120
'7:12.189',-0.365,0.135
'7:12.192',-0.335,0.140
'7:12.194',-0.315,0.145
'7:12.197',-0.305,0.145
'7:12.200',-0.295,0.135
'7:12.203',-0.320,0.130
'7:12.206',-0.330,0.140
'7:12.208',-0.335,0.145
'7:12.211',-0.340,0.160
'7:12.214',-0.340,0.155
'7:12.217',-0.345,0.145
'7:12.219',-0.350,0.145
'7:12.222',-0.340,0.155
'7:12.225',-0.335,0.150
'7:12.228',-0.325,0.145
'7:12.231',-0.320,0.135
'7:12.233',-0.335,0.125
'7:12.236',-0.345,0.115
'7:12.239',-0.330,0.125
'7:12.242',-0.320,0.140
'7:12.244',-0.315,0.155
'7:12.247',-0.310,0.155
'7:12.250',-0.320,0.150
'7:12.253',-0.325,0.145
'7:12.256',-0.325,0.140
'7:12.258',-0.310,0.140
'7:12.261',-0.290,0.145
'7:12.264',-0.295,0.135
'7:12.267',-0.310,0.130
'7:12.269',-0.320,0.125
'7:12.272',-0.320,0.125
'7:12.275',-0.315,0.130
'7:12.278',-0.300,0.135
'7:12.281',-0.300,0.125
'7:12.283',-0.310,0.115
'7:12.286',-0.315,0.110
'7:12.289',-0.310,0.110
'7:12.292',-0.310,0.110
'7:12.294',-0.315,0.115
'7:12.297',-0.320,0.120
'7:12.300',-0.315,0.115
'7:12.303',-0.310,0.115
'7:12.306',-0.290,0.110
'7:12.308',-0.275,0.110
'7:12.311',-0.240,0.110
'7:12.314',-0.240,0.095
'7:12.317',-0.240,0.085
'7:12.319',-0.265,0.095
'7:12.322',-0.295,0.100
'7:12.325',-0.270,0.110
'7:12.328',-0.255,0.110
'7:12.331',-0.245,0.110
'7:12.333',-0.250,0.105
'7:12.336',-0.270,0.110
'7:12.339',-0.260,0.115
'7:12.342',-0.245,0.115
'7:12.344',-0.220,0.130
'7:12.347',-0.235,0.125
'7:12.350',-0.250,0.115
'7:12.353',-0.255,0.110
'7:12.356',-0.275,0.115
'7:12.358',-0.235,0.125
'7:12.361',-0.200,0.135
'7:12.364',-0.185,0.130
'7:12.367',-0.175,0.130
'7:12.369',-0.175,0.125
'7:12.372',-0.135,0.135
'7:12.375',-0.065,0.140
'7:12.378',0.085,0.135
'7:12.381',0.390,0.115
'7:12.383',0.905,0.090
'7:12.386',1.360,0.055
'7:12.389',1.430,0.040
'7:12.392',1.225,0.005
'7:12.394',0.965,-0.100
'7:12.397',0.840,-0.305
'7:12.400',0.770,-0.575
'7:12.403',0.690,-0.730
'7:12.406',0.585,-0.670
'7:12.408',0.485,-0.565
'7:12.411',0.375,-0.490
'7:12.414',0.235,-0.470
'7:12.417',0.090,-0.460
'7:12.419',-0.065,-0.450
'7:12.422',-0.215,-0.430
'7:12.425',-0.325,-0.410
'7:12.428',-0.445,-0.410
'7:12.431',-0.570,-0.415
'7:12.433',-0.730,-0.430
'7:12.436',-0.885,-0.455
'7:12.439',-1.045,-0.455
'7:12.442',-1.190,-0.445
'7:12.444',-1.305,-0.435
'7:12.447',-1.415,-0.425
'7:12.450',-1.515,-0.435
'7:12.453',-1.600,-0.440
'7:12.456',-1.670,-0.440
'7:12.458',-1.715,-0.430
'7:12.461',-1.735,-0.420
'7:12.464',-1.760,-0.430
'7:12.467',-1.770,-0.445
'7:12.469',-1.770,-0.455
'7:12.472',-1.755,-0.460
'7:12.475',-1.690,-0.470
'7:12.478',-1.625,-0.475
'7:12.481',-1.580,-0.495
'7:12.483',-1.495,-0.515
'7:12.486',-1.405,-0.530
'7:12.489',-1.280,-0.535
'7:12.492',-1.095,-0.525
'7:12.494',-0.940,-0.520
'7:12.497',-0.815,-0.505
'7:12.500',-0.755,-0.480
'7:12.503',-0.730,-0.450
'7:12.506',-0.710,-0.435
'7:12.508',-0.660,-0.405
'7:12.511',-0.595,-0.380
'7:12.514',-0.505,-0.350
'7:12.517',-0.445,-0.330
'7:12.519',-0.375,-0.300
'7:12.522',-0.320,-0.265
'7:12.525',-0.260,-0.220
'7:12.528',-0.165,-0.175
'7:12.531',-0.105,-0.140
'7:12.533',-0.040,-0.115
'7:12.536',0.020,-0.080
'7:12.539',0.085,-0.050
'7:12.542',0.150,-0.015
'7:12.544',0.185,0.020
'7:12.547',0.200,0.045
'7:12.550',0.220,0.055
'7:12.553',0.225,0.080
'7:12.556',0.240,0.095
'7:12.558',0.245,0.115
'7:12.561',0.285,0.130
'7:12.564',0.320,0.125
'7:12.567',0.320,0.125
'7:12.569',0.305,0.125
'7:12.572',0.290,0.135
'7:12.575',0.315,0.145
'7:12.578',0.345,0.160
'7:12.581',0.340,0.165
'7:12.583',0.340,0.165
'7:12.586',0.345,0.165
'7:12.589',0.355,0.175
'7:12.592',0.375,0.185
'7:12.594',0.415,0.190
'7:12.597',0.435,0.190
'7:12.600',0.445,0.185
'7:12.603',0.470,0.175
'7:12.606',0.475,0.190
'7:12.608',0.490,0.210
'7:12.611',0.505,0.230
'7:12.614',0.520,0.225
'7:12.617',0.530,0.225
'7:12.619',0.540,0.225
'7:12.622',0.565,0.225
'7:12.625',0.575,0.235
'7:12.628',0.595,0.245
'7:12.631',0.615,0.250
'7:12.633',0.620,0.255
'7:12.636',0.645,0.255
'7:12.639',0.665,0.260
'7:12.642',0.695,0.275
'7:12.644',0.725,0.275
'7:12.647',0.735,0.280
'7:12.650',0.735,0.275
'7:12.653',0.725,0.265
'7:12.656',0.740,0.270
'7:12.658',0.780,0.275
'7:12.661',0.830,0.280
'7:12.664',0.850,0.275
'7:12.667',0.850,0.275
'7:12.669',0.850,0.270
'7:12.672',0.865,0.280
'7:12.675',0.885,0.285
'7:12.678',0.915,0.295
'7:12.681',0.925,0.295
'7:12.683',0.945,0.290
'7:12.686',0.940,0.290
'7:12.689',0.950,0.295
'7:12.692',0.975,0.300
'7:12.694',1.015,0.320
'7:12.697',1.025,0.315
'7:12.700',1.025,0.305
'7:12.703',1.000,0.310
'7:12.706',1.020,0.320
'7:12.708',1.030,0.325
'7:12.711',1.030,0.335
'7:12.714',1.030,0.330
'7:12.717',1.010,0.335
'7:12.719',0.980,0.330
'7:12.722',0.965,0.335
'7:12.725',0.965,0.350
'7:12.728',0.965,0.345
'7:12.731',0.960,0.350
'7:12.733',0.930,0.340
'7:12.736',0.900,0.335
'7:12.739',0.875,0.350
'7:12.742',0.840,0.360
'7:12.744',0.805,0.365
'7:12.747',0.790,0.365
'7:12.750',0.755,0.355
'7:12.753',0.725,0.355
'7:12.756',0.695,0.345
'7:12.758',0.675,0.350
'7:12.761',0.650,0.355
'7:12.764',0.625,0.340
'7:12.767',0.585,0.320
'7:12.769',0.545,0.310
'7:12.772',0.515,0.305
'7:12.775',0.490,0.300
'7:12.778',0.485,0.295
'7:12.781',0.465,0.280
'7:12.783',0.420,0.265
'7:12.786',0.380,0.240
'7:12.789',0.335,0.230
'7:12.792',0.315,0.230
'7:12.794',0.290,0.230
'7:12.797',0.270,0.200
'7:12.800',0.240,0.190
'7:12.803',0.220,0.180
'7:12.806',0.210,0.170
'7:12.808',0.175,0.160
'7:12.811',0.170,0.150
'7:12.814',0.135,0.145
'7:12.817',0.110,0.130
'7:12.819',0.100,0.120
'7:12.822',0.090,0.115
'7:12.825',0.090,0.115
'7:12.828',0.080,0.115
'7:12.831',0.075,0.110
'7:12.833',0.045,0.095
'7:12.836',0.030,0.090
'7:12.839',0.015,0.095
'7:12.842',0.015,0.100
'7:12.844',0.040,0.105
'7:12.847',0.030,0.095
'7:12.850',0.025,0.090
'7:12.853',-0.020,0.090
'7:12.856',-0.020,0.085
'7:12.858',-0.045,0.100
'7:12.861',-0.030,0.095
'7:12.864',-0.025,0.090
'7:12.867',-0.030,0.085
'7:12.869',-0.035,0.085
'7:12.872',-0.025,0.090
'7:12.875',-0.010,0.095
'7:12.878',-0.015,0.105
'7:12.881',-0.010,0.105
'7:12.883',-0.015,0.105
'7:12.886',-0.025,0.100
'7:12.889',-0.050,0.100
'7:12.892',-0.050,0.115
'7:12.894',-0.035,0.120
'7:12.897',-0.035,0.115
'7:12.900',-0.045,0.115
'7:12.903',-0.070,0.105
'7:12.906',-0.050,0.110
'7:12.908',-0.050,0.110
'7:12.911',-0.050,0.115
'7:12.914',-0.065,0.115
'7:12.917',-0.075,0.105
'7:12.919',-0.090,0.100
'7:12.922',-0.095,0.100
'7:12.925',-0.100,0.100
'7:12.928',-0.085,0.100
'7:12.931',-0.090,0.105
'7:12.933',-0.105,0.090
'7:12.936',-0.130,0.075
'7:12.939',-0.125,0.075
'7:12.942',-0.130,0.085
'7:12.944',-0.110,0.085
'7:12.947',-0.135,0.065
'7:12.950',-0.150,0.065
'7:12.953',-0.160,0.060
'7:12.956',-0.180,0.065
'7:12.958',-0.145,0.065
'7:12.961',-0.135,0.070
'7:12.964',-0.155,0.075
'7:12.967',-0.155,0.070
'7:12.969',-0.185,0.060
'7:12.972',-0.180,0.060
'7:12.975',-0.180,0.060
'7:12.978',-0.155,0.070
'7:12.981',-0.165,0.065
'7:12.983',-0.185,0.065
'7:12.986',-0.205,0.055
'7:12.989',-0.210,0.060
'7:12.992',-0.215,0.065
'7:12.994',-0.190,0.075
'7:12.997',-0.185,0.070
'7:13.000',-0.170,0.060
'7:13.003',-0.180,0.055
'7:13.006',-0.175,0.060
'7:13.008',-0.165,0.065
'7:13.011',-0.150,0.060
'7:13.014',-0.145,0.065
'7:13.017',-0.165,0.065
'7:13.019',-0.185,0.070
'7:13.022',-0.190,0.070
'7:13.025',-0.185,0.080
'7:13.028',-0.165,0.080
'7:13.031',-0.160,0.070
'7:13.033',-0.165,0.070
'7:13.036',-0.180,0.065
'7:13.039',-0.190,0.075
'7:13.042',-0.190,0.080
'7:13.044',-0.170,0.085
'7:13.047',-0.170,0.075
'7:13.050',-0.185,0.065
'7:13.053',-0.210,0.070
'7:13.056',-0.220,0.065
'7:13.058',-0.205,0.070
'7:13.061',-0.195,0.070
'7:13.064',-0.195,0.070
'7:13.067',-0.210,0.065
'7:13.069',-0.220,0.045
'7:13.072',-0.225,0.055
'7:13.075',-0.210,0.050
'7:13.078',-0.190,0.055
'7:13.081',-0.195,0.050
'7:13.083',-0.205,0.045
'7:13.086',-0.210,0.030
'7:13.089',-0.220,0.035
'7:13.092',-0.195,0.045
'7:13.094',-0.215,0.050
'7:13.097',-0.190,0.045
'7:13.100',-0.205,0.040
'7:13.103',-0.195,0.030
'7:13.106',-0.200,0.025
'7:13.108',-0.175,0.040
'7:13.111',-0.165,0.040
'7:13.114',-0.185,0.035
'7:13.117',-0.210,0.025
'7:13.119',-0.205,0.035
'7:13.122',-0.220,0.035
'7:13.125',-0.190,0.045
'7:13.128',-0.195,0.055
'7:13.131',-0.185,0.050
'7:13.133',-0.205,0.035
'7:13.136',-0.230,0.035
'7:13.139',-0.215,0.035
'7:13.142',-0.195,0.040
'7:13.144',-0.165,0.050
'7:13.147',-0.155,0.050
'7:13.150',-0.170,0.040
'7:13.153',-0.190,0.035
'7:13.156',-0.200,0.040
'7:13.158',-0.160,0.055
'7:13.161',-0.145,0.060
'7:13.164',-0.150,0.050
'7:13.167',-0.130,0.045
'7:13.169',-0.125,0.035
'7:13.172',-0.120,0.040
'7:13.175',-0.045,0.040
'7:13.178',0.035,0.040
'7:13.181',0.230,0.030
'7:13.183',0.605,0.030
'7:13.186',1.055,0.010
'7:13.189',1.350,0.000
'7:13.192',1.330,-0.020
'7:13.194',1.115,-0.060
'7:13.197',0.920,-0.165
'7:13.200',0.820,-0.350
'7:13.203',0.765,-0.585
'7:13.206',0.680,-0.720
'7:13.208',0.600,-0.675
'7:13.211',0.510,-0.545
'7:13.214',0.390,-0.485
'7:13.217',0.250,-0.475
'7:13.219',0.110,-0.465
'7:13.222',-0.020,-0.445
'7:13.225',-0.140,-0.435
'7:13.228',-0.280,-0.425
'7:13.231',-0.415,-0.425
'7:13.233',-0.570,-0.440
'7:13.236',-0.720,-0.450
'7:13.239',-0.870,-0.455
'7:13.242',-1.015,-0.450
'7:13.244',-1.150,-0.450
'7:13.247',-1.280,-0.455
'7:13.250',-1.415,-0.465
'7:13.253',-1.525,-0.470
'7:13.256',-1.630,-0.460
'7:13.258',-1.705,-0.450
'7:13.261',-1.770,-0.440
'7:13.264',-1.825,-0.440
'7:13.267',-1.860,-0.455
'7:13.269',-1.905,-0.465
'7:13.272',-1.920,-0.455
'7:13.275',-1.915,-0.450
'7:13.278',-1.875,-0.450
'7:13.281',-1.860,-0.465
'7:13.283',-1.825,-0.475
'7:13.286',-1.810,-0.490
'7:13.289',-1.730,-0.500
'7:13.292',-1.625,-0.505
'7:13.294',-1.525,-0.495
'7:13.297',-1.420,-0.495
'7:13.300',-1.285,-0.505
'7:13.303',-1.155,-0.500
'7:13.306',-1.010,-0.490
'7:13.308',-0.895,-0.455
'7:13.311',-0.785,-0.425
'7:13.314',-0.745,-0.400
'7:13.317',-0.695,-0.400
'7:13.319',-0.655,-0.390
'7:13.322',-0.590,-0.370
'7:13.325',-0.510,-0.345
'7:13.328',-0.425,-0.310
'7:13.331',-0.365,-0.280
'7:13.333',-0.310,-0.265
'7:13.336',-0.275,-0.235
'7:13.339',-0.200,-0.195
'7:13.342',-0.125,-0.155
'7:13.344',-0.060,-0.120
'7:13.347',-0.020,-0.095
'7:13.350',0.035,-0.075
'7:13.353',0.050,-0.050
'7:13.356',0.060,-0.025
'7:13.358',0.095,0.005
'7:13.361',0.120,0.025
'7:13.364',0.140,0.035
'7:13.367',0.155,0.040
'7:13.369',0.170,0.045
'7:13.372',0.170,0.060
'7:13.375',0.195,0.075
'7:13.378',0.220,0.090
'7:13.381',0.235,0.090
'7:13.383',0.235,0.085
'7:13.386',0.210,0.080
'7:13.389',0.220,0.090
'7:13.392',0.235,0.100
'7:13.394',0.260,0.115
'7:13.397',0.270,0.110
'7:13.400',0.280,0.115
'7:13.403',0.280,0.115
'7:13.406',0.300,0.115
'7:13.408',0.310,0.120
'7:13.411',0.335,0.125
'7:13.414',0.350,0.125
'7:13.417',0.365,0.120
'7:13.419',0.365,0.125
'7:13.422',0.365,0.135
'7:13.425',0.405,0.155
'7:13.428',0.435,0.170
'7:13.431',0.460,0.170
'7:13.433',0.460,0.165
'7:13.436',0.460,0.155
'7:13.439',0.470,0.160
'7:13.442',0.500,0.175
'7:13.444',0.515,0.185
'7:13.447',0.550,0.185
'7:13.450',0.555,0.185
'7:13.453',0.570,0.180
'7:13.456',0.590,0.190
'7:13.458',0.625,0.190
'7:13.461',0.655,0.210
'7:13.464',0.670,0.205
'7:13.467',0.665,0.195
'7:13.469',0.670,0.195
'7:13.472',0.710,0.200
'7:13.475',0.730,0.210
'7:13.478',0.770,0.220
'7:13.481',0.785,0.220
'7:13.483',0.790,0.220
'7:13.486',0.795,0.215
'7:13.489',0.815,0.220
'7:13.492',0.835,0.235
'7:13.494',0.850,0.245
'7:13.497',0.870,0.235
'7:13.500',0.880,0.235
'7:13.503',0.890,0.235
'7:13.506',0.925,0.235
'7:13.508',0.940,0.250
'7:13.511',0.950,0.275
'7:13.514',0.970,0.280
'7:13.517',0.950,0.285
'7:13.519',0.955,0.290
'7:13.522',0.950,0.285
'7:13.525',0.950,0.305
'7:13.528',0.975,0.315
'7:13.531',0.955,0.310
'7:13.533',0.955,0.305
'7:13.536',0.930,0.305
'7:13.539',0.920,0.310
'7:13.542',0.910,0.320
'7:13.544',0.890,0.330
'7:13.547',0.865,0.335
'7:13.550',0.825,0.340
'7:13.553',0.775,0.350
'7:13.556',0.735,0.365
'7:13.558',0.705,0.365
'7:13.561',0.680,0.345
'7:13.564',0.640,0.320
'7:13.567',0.590,0.305
'7:13.569',0.530,0.305
'7:13.572',0.485,0.315
'7:13.575',0.455,0.330
'7:13.578',0.425,0.325
'7:13.581',0.385,0.295
'7:13.583',0.335,0.250
'7:13.586',0.280,0.220
'7:13.589',0.245,0.200
'7:13.592',0.220,0.195
'7:13.594',0.210,0.205
'7:13.597',0.170,0.190
'7:13.600',0.135,0.180
'7:13.603',0.105,0.165
'7:13.606',0.070,0.160
'7:13.608',0.050,0.165
'7:13.611',0.035,0.160
'7:13.614',0.010,0.145
'7:13.617',-0.010,0.130
'7:13.619',-0.065,0.115
'7:13.622',-0.075,0.100
'7:13.625',-0.085,0.105
'7:13.628',-0.075,0.100
'7:13.631',-0.070,0.095
'7:13.633',-0.090,0.075
'7:13.636',-0.115,0.065
'7:13.639',-0.115,0.075
'7:13.642',-0.130,0.075
'7:13.644',-0.105,0.080
'7:13.647',-0.110,0.070
'7:13.650',-0.130,0.065
'7:13.653',-0.145,0.060
'7:13.656',-0.150,0.055
'7:13.658',-0.150,0.065
'7:13.661',-0.125,0.065
'7:13.664',-0.120,0.065
'7:13.667',-0.130,0.065
'7:13.669',-0.130,0.060
'7:13.672',-0.135,0.070
'7:13.675',-0.120,0.070
'7:13.678',-0.110,0.080
'7:13.681',-0.115,0.070
'7:13.683',-0.120,0.065
'7:13.686',-0.155,0.065
'7:13.689',-0.145,0.070
'7:13.692',-0.130,0.080
'7:13.694',-0.130,0.090
'7:13.697',-0.140,0.090
'7:13.700',-0.175,0.085
'7:13.703',-0.195,0.085
'7:13.706',-0.190,0.080
'7:13.708',-0.175,0.090
'7:13.711',-0.180,0.095
'7:13.714',-0.175,0.085
'7:13.717',-0.180,0.080
'7:13.719',-0.190,0.080
'7:13.722',-0.210,0.080
'7:13.725',-0.220,0.080
'7:13.728',-0.200,0.090
'7:13.731',-0.205,0.085
'7:13.733',-0.235,0.080
'7:13.736',-0.240,0.070
'7:13.739',-0.235,0.075
'7:13.742',-0.225,0.075
'7:13.744',-0.210,0.085
'7:13.747',-0.210,0.075
'7:13.750',-0.210,0.065
'7:13.753',-0.240,0.055
'7:13.756',-0.245,0.060
'7:13.758',-0.240,0.070
'7:13.761',-0.220,0.075
'7:13.764',-0.215,0.065
'7:13.767',-0.225,0.060
'7:13.769',-0.245,0.050
'7:13.772',-0.275,0.055
'7:13.775',-0.250,0.060
'7:13.778',-0.230,0.065
'7:13.781',-0.240,0.060
'7:13.783',-0.240,0.060
'7:13.786',-0.255,0.050
'7:13.789',-0.265,0.055
'7:13.792',-0.250,0.065
'7:13.794',-0.270,0.065
'7:13.797',-0.250,0.060
'7:13.800',-0.280,0.055
'7:13.803',-0.285,0.050
'7:13.806',-0.290,0.055
'7:13.808',-0.265,0.065
'7:13.811',-0.250,0.075
'7:13.814',-0.255,0.065
'7:13.817',-0.245,0.055
'7:13.819',-0.275,0.045
'7:13.822',-0.265,0.055
'7:13.825',-0.265,0.060
'7:13.828',-0.250,0.065
'7:13.831',-0.250,0.065
'7:13.833',-0.245,0.060
'7:13.836',-0.275,0.060
'7:13.839',-0.290,0.060
'7:13.842',-0.295,0.070
'7:13.844',-0.275,0.080
'7:13.847',-0.280,0.070
'7:13.850',-0.290,0.065
'7:13.853',-0.290,0.055
'7:13.856',-0.285,0.060
'7:13.858',-0.270,0.065
'7:13.861',-0.260,0.075
'7:13.864',-0.255,0.075
'7:13.867',-0.265,0.065
'7:13.869',-0.280,0.060
'7:13.872',-0.285,0.060
'7:13.875',-0.265,0.065
'7:13.878',-0.275,0.065
'7:13.881',-0.260,0.060
'7:13.883',-0.275,0.055
'7:13.886',-0.290,0.040
'7:13.889',-0.295,0.045
'7:13.892',-0.270,0.050
'7:13.894',-0.250,0.055
'7:13.897',-0.245,0.050
'7:13.900',-0.255,0.040
'7:13.903',-0.275,0.035
'7:13.906',-0.285,0.045
'7:13.908',-0.260,0.050
'7:13.911',-0.245,0.055
'7:13.914',-0.240,0.045
'7:13.917',-0.245,0.040
'7:13.919',-0.285,0.040
'7:13.922',-0.265,0.040
'7:13.925',-0.260,0.045
'7:13.928',-0.250,0.045
'7:13.931',-0.260,0.045
'7:13.933',-0.265,0.045
'7:13.936',-0.290,0.040
'7:13.939',-0.285,0.045
'7:13.942',-0.270,0.050
'7:13.944',-0.260,0.060
'7:13.947',-0.265,0.050
'7:13.950',-0.240,0.040
'7:13.953',-0.260,0.030
'7:13.956',-0.260,0.035
'7:13.958',-0.245,0.050
