'Elapsed time','MLII','V1'
'hh:mm:ss.mmm','mV','mV'
'9:00.000',-0.255,0.445
'9:00.003',-0.235,0.455
'9:00.006',-0.215,0.460
'9:00.008',-0.170,0.475
'9:00.011',-0.150,0.485
'9:00.014',-0.125,0.480
'9:00.017',-0.115,0.470
'9:00.019',-0.110,0.480
'9:00.022',-0.130,0.475
'9:00.025',-0.135,0.465
'9:00.028',-0.150,0.455
'9:00.031',-0.155,0.440
'9:00.033',-0.155,0.440
'9:00.036',-0.145,0.430
'9:00.039',-0.140,0.420
'9:00.042',-0.150,0.420
'9:00.044',-0.175,0.415
'9:00.047',-0.185,0.415
'9:00.050',-0.205,0.395
'9:00.053',-0.200,0.380
'9:00.056',-0.215,0.350
'9:00.058',-0.225,0.320
'9:00.061',-0.220,0.295
'9:00.064',-0.235,0.285
'9:00.067',-0.255,0.275
'9:00.069',-0.270,0.275
'9:00.072',-0.275,0.260
'9:00.075',-0.280,0.260
'9:00.078',-0.270,0.260
'9:00.081',-0.260,0.250
'9:00.083',-0.265,0.235
'9:00.086',-0.285,0.215
'9:00.089',-0.285,0.180
'9:00.092',-0.320,0.175
'9:00.094',-0.325,0.170
'9:00.097',-0.330,0.165
'9:00.100',-0.305,0.170
'9:00.103',-0.295,0.170
'9:00.106',-0.300,0.185
'9:00.108',-0.290,0.185
'9:00.111',-0.295,0.180
'9:00.114',-0.290,0.185
'9:00.117',-0.305,0.170
'9:00.119',-0.295,0.170
'9:00.122',-0.300,0.160
'9:00.125',-0.295,0.150
'9:00.128',-0.300,0.150
'9:00.131',-0.295,0.145
'9:00.133',-0.285,0.155
'9:00.136',-0.280,0.155
'9:00.139',-0.280,0.155
'9:00.142',-0.275,0.165
'9:00.144',-0.285,0.170
'9:00.147',-0.285,0.165
'9:00.150',-0.295,0.170
'9:00.153',-0.285,0.155
'9:00.156',-0.280,0.160
'9:00.158',-0.275,0.160
'9:00.161',-0.285,0.150
'9:00.164',-0.280,0.145
'9:00.167',-0.290,0.135
'9:00.169',-0.290,0.160
'9:00.172',-0.280,0.165
'9:00.175',-0.280,0.180
'9:00.178',-0.260,0.185
'9:00.181',-0.250,0.190
'9:00.183',-0.240,0.180
'9:00.186',-0.245,0.170
'9:00.189',-0.255,0.160
'9:00.192',-0.280,0.155
'9:00.194',-0.285,0.155
'9:00.197',-0.290,0.150
'9:00.200',-0.285,0.155
'9:00.203',-0.285,0.145
'9:00.206',-0.280,0.150
'9:00.208',-0.270,0.160
'9:00.211',-0.265,0.180
'9:00.214',-0.260,0.165
'9:00.217',-0.265,0.175
'9:00.219',-0.260,0.160
'9:00.222',-0.260,0.140
'9:00.225',-0.265,0.130
'9:00.228',-0.265,0.130
'9:00.231',-0.265,0.130
'9:00.233',-0.265,0.120
'9:00.236',-0.265,0.150
'9:00.239',-0.260,0.145
'9:00.242',-0.270,0.150
'9:00.244',-0.265,0.165
'9:00.247',-0.265,0.155
'9:00.250',-0.265,0.145
'9:00.253',-0.260,0.135
'9:00.256',-0.260,0.130
'9:00.258',-0.255,0.130
'9:00.261',-0.280,0.135
'9:00.264',-0.270,0.135
'9:00.267',-0.265,0.150
'9:00.269',-0.260,0.140
'9:00.272',-0.235,0.150
'9:00.275',-0.225,0.160
'9:00.278',-0.200,0.175
'9:00.281',-0.170,0.180
'9:00.283',-0.160,0.225
'9:00.286',-0.150,0.255
'9:00.289',-0.135,0.290
'9:00.292',-0.135,0.305
'9:00.294',-0.130,0.320
'9:00.297',-0.115,0.310
'9:00.300',-0.110,0.315
'9:00.303',-0.100,0.305
'9:00.306',-0.080,0.310
'9:00.308',-0.045,0.300
'9:00.311',0.005,0.305
'9:00.314',0.040,0.295
'9:00.317',0.070,0.270
'9:00.319',0.095,0.245
'9:00.322',0.105,0.205
'9:00.325',0.080,0.190
'9:00.328',0.045,0.160
'9:00.331',0.020,0.135
'9:00.333',0.000,0.135
'9:00.336',0.005,0.135
'9:00.339',0.015,0.150
'9:00.342',0.035,0.150
'9:00.344',0.040,0.130
'9:00.347',0.040,0.110
'9:00.350',0.030,0.080
'9:00.353',0.010,0.045
'9:00.356',-0.010,0.030
'9:00.358',-0.055,0.015
'9:00.361',-0.095,0.025
'9:00.364',-0.125,0.030
'9:00.367',-0.155,0.070
'9:00.369',-0.205,0.090
'9:00.372',-0.205,0.105
'9:00.375',-0.225,0.120
'9:00.378',-0.230,0.130
'9:00.381',-0.235,0.120
'9:00.383',-0.245,0.110
'9:00.386',-0.245,0.095
'9:00.389',-0.265,0.080
'9:00.392',-0.270,0.090
'9:00.394',-0.280,0.080
'9:00.397',-0.295,0.080
'9:00.400',-0.290,0.085
'9:00.403',-0.290,0.090
'9:00.406',-0.290,0.090
'9:00.408',-0.275,0.090
'9:00.411',-0.260,0.090
'9:00.414',-0.255,0.085
'9:00.417',-0.240,0.085
'9:00.419',-0.245,0.085
'9:00.422',-0.270,0.100
'9:00.425',-0.280,0.110
'9:00.428',-0.285,0.145
'9:00.431',-0.280,0.180
'9:00.433',-0.230,0.220
'9:00.436',-0.160,0.270
'9:00.439',-0.040,0.265
'9:00.442',0.130,0.260
'9:00.444',0.320,0.190
'9:00.447',0.535,0.065
'9:00.450',0.745,-0.095
'9:00.453',0.910,-0.280
'9:00.456',1.100,-0.525
'9:00.458',1.270,-0.820
'9:00.461',1.455,-1.150
'9:00.464',1.610,-1.490
'9:00.467',1.735,-1.790
'9:00.469',1.820,-2.005
'9:00.472',1.840,-2.095
'9:00.475',1.805,-2.090
'9:00.478',1.700,-2.015
'9:00.481',1.520,-1.895
'9:00.483',1.255,-1.750
'9:00.486',0.935,-1.590
'9:00.489',0.585,-1.380
'9:00.492',0.305,-1.175
'9:00.494',0.080,-0.950
'9:00.497',-0.075,-0.735
'9:00.500',-0.170,-0.585
'9:00.503',-0.225,-0.450
'9:00.506',-0.225,-0.355
'9:00.508',-0.225,-0.265
'9:00.511',-0.260,-0.175
'9:00.514',-0.310,-0.100
'9:00.517',-0.365,-0.015
'9:00.519',-0.410,0.040
'9:00.522',-0.425,0.080
'9:00.525',-0.450,0.105
'9:00.528',-0.445,0.135
'9:00.531',-0.435,0.125
'9:00.533',-0.435,0.145
'9:00.536',-0.425,0.160
'9:00.539',-0.430,0.170
'9:00.542',-0.445,0.185
'9:00.544',-0.450,0.190
'9:00.547',-0.455,0.200
'9:00.550',-0.465,0.215
'9:00.553',-0.455,0.230
'9:00.556',-0.465,0.235
'9:00.558',-0.470,0.235
'9:00.561',-0.470,0.235
'9:00.564',-0.480,0.240
'9:00.567',-0.495,0.240
'9:00.569',-0.480,0.255
'9:00.572',-0.480,0.260
'9:00.575',-0.475,0.270
'9:00.578',-0.480,0.295
'9:00.581',-0.485,0.300
'9:00.583',-0.485,0.310
'9:00.586',-0.500,0.320
'9:00.589',-0.500,0.295
'9:00.592',-0.520,0.290
'9:00.594',-0.515,0.290
'9:00.597',-0.525,0.295
'9:00.600',-0.520,0.300
'9:00.603',-0.510,0.330
'9:00.606',-0.520,0.355
'9:00.608',-0.520,0.370
'9:00.611',-0.530,0.395
'9:00.614',-0.525,0.385
'9:00.617',-0.535,0.405
'9:00.619',-0.545,0.395
'9:00.622',-0.565,0.385
'9:00.625',-0.595,0.395
'9:00.628',-0.610,0.410
'9:00.631',-0.635,0.410
'9:00.633',-0.640,0.440
'9:00.636',-0.645,0.450
'9:00.639',-0.650,0.460
'9:00.642',-0.655,0.480
'9:00.644',-0.660,0.485
'9:00.647',-0.670,0.480
'9:00.650',-0.690,0.485
'9:00.653',-0.710,0.485
'9:00.656',-0.730,0.485
'9:00.658',-0.750,0.490
'9:00.661',-0.785,0.485
'9:00.664',-0.800,0.505
'9:00.667',-0.815,0.500
'9:00.669',-0.810,0.520
'9:00.672',-0.820,0.525
'9:00.675',-0.805,0.540
'9:00.678',-0.810,0.545
'9:00.681',-0.805,0.560
'9:00.683',-0.815,0.555
'9:00.686',-0.820,0.555
'9:00.689',-0.820,0.545
'9:00.692',-0.825,0.545
'9:00.694',-0.815,0.530
'9:00.697',-0.815,0.520
'9:00.700',-0.780,0.510
'9:00.703',-0.755,0.500
'9:00.706',-0.720,0.500
'9:00.708',-0.705,0.490
'9:00.711',-0.690,0.495
'9:00.714',-0.655,0.485
'9:00.717',-0.635,0.465
'9:00.719',-0.625,0.450
'9:00.722',-0.585,0.420
'9:00.725',-0.550,0.380
'9:00.728',-0.515,0.370
'9:00.731',-0.485,0.345
'9:00.733',-0.455,0.330
'9:00.736',-0.435,0.320
'9:00.739',-0.420,0.305
'9:00.742',-0.390,0.295
'9:00.744',-0.380,0.285
'9:00.747',-0.360,0.270
'9:00.750',-0.335,0.245
'9:00.753',-0.305,0.215
'9:00.756',-0.295,0.200
'9:00.758',-0.275,0.185
'9:00.761',-0.285,0.170
'9:00.764',-0.270,0.165
'9:00.767',-0.265,0.175
'9:00.769',-0.255,0.155
'9:00.772',-0.245,0.155
'9:00.775',-0.245,0.150
'9:00.778',-0.235,0.150
'9:00.781',-0.225,0.140
'9:00.783',-0.230,0.140
'9:00.786',-0.225,0.135
'9:00.789',-0.230,0.135
'9:00.792',-0.235,0.125
'9:00.794',-0.250,0.125
'9:00.797',-0.260,0.120
'9:00.800',-0.250,0.125
'9:00.803',-0.235,0.120
'9:00.806',-0.225,0.125
'9:00.808',-0.205,0.130
'9:00.811',-0.210,0.145
'9:00.814',-0.210,0.155
'9:00.817',-0.215,0.155
'9:00.819',-0.225,0.140
'9:00.822',-0.230,0.130
'9:00.825',-0.235,0.120
'9:00.828',-0.240,0.115
'9:00.831',-0.245,0.115
'9:00.833',-0.230,0.115
'9:00.836',-0.225,0.135
'9:00.839',-0.225,0.150
'9:00.842',-0.210,0.155
'9:00.844',-0.200,0.160
'9:00.847',-0.200,0.165
'9:00.850',-0.195,0.145
'9:00.853',-0.200,0.140
'9:00.856',-0.200,0.130
'9:00.858',-0.215,0.130
'9:00.861',-0.225,0.130
'9:00.864',-0.235,0.140
'9:00.867',-0.240,0.135
'9:00.869',-0.235,0.165
'9:00.872',-0.215,0.165
'9:00.875',-0.205,0.170
'9:00.878',-0.185,0.185
'9:00.881',-0.160,0.195
'9:00.883',-0.145,0.215
'9:00.886',-0.130,0.245
'9:00.889',-0.110,0.265
'9:00.892',-0.095,0.285
'9:00.894',-0.090,0.295
'9:00.897',-0.075,0.310
'9:00.900',-0.085,0.320
'9:00.903',-0.060,0.325
'9:00.906',-0.025,0.335
'9:00.908',0.020,0.330
'9:00.911',0.070,0.335
'9:00.914',0.120,0.310
'9:00.917',0.140,0.260
'9:00.919',0.155,0.225
'9:00.922',0.145,0.180
'9:00.925',0.110,0.150
'9:00.928',0.085,0.110
'9:00.931',0.070,0.115
'9:00.933',0.050,0.125
'9:00.936',0.050,0.125
'9:00.939',0.065,0.130
'9:00.942',0.065,0.125
'9:00.944',0.070,0.105
'9:00.947',0.065,0.100
'9:00.950',0.045,0.070
'9:00.953',0.005,0.045
'9:00.956',-0.030,0.025
'9:00.958',-0.080,0.050
'9:00.961',-0.125,0.060
'9:00.964',-0.155,0.070
'9:00.967',-0.180,0.085
'9:00.969',-0.185,0.110
'9:00.972',-0.185,0.105
'9:00.975',-0.190,0.125
'9:00.978',-0.190,0.120
'9:00.981',-0.205,0.120
'9:00.983',-0.240,0.100
'9:00.986',-0.230,0.095
'9:00.989',-0.245,0.085
'9:00.992',-0.250,0.070
'9:00.994',-0.235,0.065
'9:00.997',-0.240,0.055
'9:01.000',-0.225,0.065
'9:01.003',-0.210,0.060
'9:01.006',-0.210,0.080
'9:01.008',-0.220,0.080
'9:01.011',-0.215,0.075
'9:01.014',-0.220,0.080
'9:01.017',-0.220,0.085
'9:01.019',-0.210,0.115
'9:01.022',-0.210,0.145
'9:01.025',-0.190,0.200
'9:01.028',-0.150,0.235
'9:01.031',-0.060,0.265
'9:01.033',0.090,0.280
'9:01.036',0.290,0.220
'9:01.039',0.505,0.105
'9:01.042',0.755,-0.045
'9:01.044',0.970,-0.235
'9:01.047',1.200,-0.505
'9:01.050',1.400,-0.820
'9:01.053',1.590,-1.185
'9:01.056',1.730,-1.550
'9:01.058',1.825,-1.855
'9:01.061',1.850,-2.050
'9:01.064',1.820,-2.105
'9:01.067',1.710,-2.055
'9:01.069',1.515,-1.935
'9:01.072',1.220,-1.760
'9:01.075',0.860,-1.545
'9:01.078',0.515,-1.295
'9:01.081',0.215,-1.045
'9:01.083',0.015,-0.825
'9:01.086',-0.105,-0.635
'9:01.089',-0.165,-0.515
'9:01.092',-0.190,-0.420
'9:01.094',-0.205,-0.350
'9:01.097',-0.230,-0.270
'9:01.100',-0.270,-0.190
'9:01.103',-0.310,-0.105
'9:01.106',-0.350,-0.025
'9:01.108',-0.360,0.035
'9:01.111',-0.370,0.090
'9:01.114',-0.370,0.110
'9:01.117',-0.375,0.120
'9:01.119',-0.365,0.120
'9:01.122',-0.360,0.125
'9:01.125',-0.375,0.135
'9:01.128',-0.375,0.140
'9:01.131',-0.395,0.160
'9:01.133',-0.405,0.170
'9:01.136',-0.415,0.165
'9:01.139',-0.415,0.185
'9:01.142',-0.420,0.195
'9:01.144',-0.405,0.210
'9:01.147',-0.395,0.215
'9:01.150',-0.400,0.220
'9:01.153',-0.385,0.230
'9:01.156',-0.390,0.230
'9:01.158',-0.395,0.235
'9:01.161',-0.415,0.245
'9:01.164',-0.440,0.235
'9:01.167',-0.435,0.235
'9:01.169',-0.440,0.240
'9:01.172',-0.435,0.265
'9:01.175',-0.430,0.275
'9:01.178',-0.410,0.285
'9:01.181',-0.420,0.305
'9:01.183',-0.420,0.310
'9:01.186',-0.430,0.310
'9:01.189',-0.440,0.320
'9:01.192',-0.440,0.300
'9:01.194',-0.450,0.300
'9:01.197',-0.455,0.290
'9:01.200',-0.455,0.295
'9:01.203',-0.455,0.330
'9:01.206',-0.470,0.350
'9:01.208',-0.475,0.365
'9:01.211',-0.465,0.380
'9:01.214',-0.475,0.385
'9:01.217',-0.480,0.390
'9:01.219',-0.505,0.390
'9:01.222',-0.515,0.385
'9:01.225',-0.530,0.395
'9:01.228',-0.550,0.415
'9:01.231',-0.565,0.420
'9:01.233',-0.550,0.430
'9:01.236',-0.580,0.445
'9:01.239',-0.575,0.455
'9:01.242',-0.590,0.475
'9:01.244',-0.590,0.495
'9:01.247',-0.590,0.490
'9:01.250',-0.620,0.495
'9:01.253',-0.640,0.505
'9:01.256',-0.655,0.510
'9:01.258',-0.665,0.515
'9:01.261',-0.675,0.510
'9:01.264',-0.680,0.515
'9:01.267',-0.690,0.530
'9:01.269',-0.690,0.550
'9:01.272',-0.695,0.545
'9:01.275',-0.685,0.560
'9:01.278',-0.665,0.565
'9:01.281',-0.665,0.575
'9:01.283',-0.660,0.565
'9:01.286',-0.655,0.565
'9:01.289',-0.650,0.555
'9:01.292',-0.650,0.545
'9:01.294',-0.645,0.540
'9:01.297',-0.645,0.525
'9:01.300',-0.610,0.505
'9:01.303',-0.585,0.500
'9:01.306',-0.560,0.490
'9:01.308',-0.520,0.480
'9:01.311',-0.460,0.465
'9:01.314',-0.435,0.450
'9:01.317',-0.405,0.410
'9:01.319',-0.375,0.390
'9:01.322',-0.355,0.355
'9:01.325',-0.350,0.330
'9:01.328',-0.340,0.295
'9:01.331',-0.335,0.275
'9:01.333',-0.315,0.250
'9:01.336',-0.295,0.245
'9:01.339',-0.255,0.235
'9:01.342',-0.235,0.230
'9:01.344',-0.200,0.225
'9:01.347',-0.180,0.205
'9:01.350',-0.170,0.185
'9:01.353',-0.170,0.170
'9:01.356',-0.180,0.145
'9:01.358',-0.210,0.120
'9:01.361',-0.205,0.115
'9:01.364',-0.210,0.120
'9:01.367',-0.210,0.115
'9:01.369',-0.220,0.140
'9:01.372',-0.210,0.145
'9:01.375',-0.185,0.145
'9:01.378',-0.190,0.155
'9:01.381',-0.190,0.155
'9:01.383',-0.200,0.140
'9:01.386',-0.210,0.125
'9:01.389',-0.200,0.120
'9:01.392',-0.200,0.105
'9:01.394',-0.200,0.105
'9:01.397',-0.185,0.110
'9:01.400',-0.185,0.115
'9:01.403',-0.190,0.125
'9:01.406',-0.190,0.135
'9:01.408',-0.185,0.135
'9:01.411',-0.185,0.140
'9:01.414',-0.175,0.140
'9:01.417',-0.180,0.135
'9:01.419',-0.170,0.150
'9:01.422',-0.175,0.135
'9:01.425',-0.180,0.135
'9:01.428',-0.190,0.115
'9:01.431',-0.210,0.115
'9:01.433',-0.220,0.115
'9:01.436',-0.215,0.100
'9:01.439',-0.205,0.105
'9:01.442',-0.185,0.125
'9:01.444',-0.175,0.135
'9:01.447',-0.145,0.140
'9:01.450',-0.160,0.135
'9:01.453',-0.160,0.130
'9:01.456',-0.185,0.115
'9:01.458',-0.185,0.110
'9:01.461',-0.185,0.110
'9:01.464',-0.180,0.115
'9:01.467',-0.160,0.115
'9:01.469',-0.150,0.125
'9:01.472',-0.140,0.135
'9:01.475',-0.125,0.160
'9:01.478',-0.100,0.215
'9:01.481',-0.080,0.230
'9:01.483',-0.065,0.265
'9:01.486',-0.030,0.265
'9:01.489',-0.025,0.285
'9:01.492',-0.025,0.285
'9:01.494',-0.020,0.275
'9:01.497',-0.025,0.280
'9:01.500',-0.010,0.290
'9:01.503',0.020,0.290
'9:01.506',0.065,0.290
'9:01.508',0.105,0.280
'9:01.511',0.155,0.265
'9:01.514',0.170,0.215
'9:01.517',0.170,0.180
'9:01.519',0.155,0.145
'9:01.522',0.135,0.120
'9:01.525',0.105,0.100
'9:01.528',0.095,0.100
'9:01.531',0.095,0.115
'9:01.533',0.115,0.125
'9:01.536',0.125,0.105
'9:01.539',0.120,0.105
'9:01.542',0.120,0.085
'9:01.544',0.095,0.050
'9:01.547',0.075,0.035
'9:01.550',0.035,0.025
'9:01.553',0.000,0.030
'9:01.556',-0.035,0.045
'9:01.558',-0.075,0.050
'9:01.561',-0.100,0.070
'9:01.564',-0.115,0.085
'9:01.567',-0.140,0.075
'9:01.569',-0.150,0.075
'9:01.572',-0.145,0.090
'9:01.575',-0.160,0.090
'9:01.578',-0.160,0.095
'9:01.581',-0.170,0.090
'9:01.583',-0.185,0.080
'9:01.586',-0.185,0.085
'9:01.589',-0.190,0.060
'9:01.592',-0.185,0.045
'9:01.594',-0.180,0.035
'9:01.597',-0.180,0.035
'9:01.600',-0.180,0.030
'9:01.603',-0.180,0.050
'9:01.606',-0.190,0.055
'9:01.608',-0.180,0.075
'9:01.611',-0.170,0.095
'9:01.614',-0.165,0.100
'9:01.617',-0.170,0.130
'9:01.619',-0.170,0.160
'9:01.622',-0.145,0.200
'9:01.625',-0.090,0.230
'9:01.628',0.000,0.255
'9:01.631',0.155,0.240
'9:01.633',0.335,0.190
'9:01.636',0.550,0.095
'9:01.639',0.765,-0.040
'9:01.642',0.965,-0.185
'9:01.644',1.145,-0.395
'9:01.647',1.330,-0.655
'9:01.650',1.510,-0.955
'9:01.653',1.685,-1.295
'9:01.656',1.805,-1.610
'9:01.658',1.905,-1.860
'9:01.661',1.935,-2.010
'9:01.664',1.910,-2.060
'9:01.667',1.835,-2.010
'9:01.669',1.715,-1.900
'9:01.672',1.495,-1.765
'9:01.675',1.185,-1.610
'9:01.678',0.830,-1.415
'9:01.681',0.515,-1.220
'9:01.683',0.250,-1.005
'9:01.686',0.065,-0.800
'9:01.689',-0.040,-0.650
'9:01.692',-0.085,-0.535
'9:01.694',-0.105,-0.450
'9:01.697',-0.115,-0.375
'9:01.700',-0.140,-0.300
'9:01.703',-0.185,-0.225
'9:01.706',-0.235,-0.135
'9:01.708',-0.260,-0.050
'9:01.711',-0.295,0.035
'9:01.714',-0.325,0.065
'9:01.717',-0.340,0.095
'9:01.719',-0.335,0.115
'9:01.722',-0.345,0.120
'9:01.725',-0.340,0.110
'9:01.728',-0.345,0.110
'9:01.731',-0.340,0.130
'9:01.733',-0.355,0.135
'9:01.736',-0.345,0.145
'9:01.739',-0.350,0.155
'9:01.742',-0.350,0.185
'9:01.744',-0.345,0.195
'9:01.747',-0.340,0.205
'9:01.750',-0.365,0.205
'9:01.753',-0.370,0.210
'9:01.756',-0.375,0.195
'9:01.758',-0.385,0.200
'9:01.761',-0.395,0.190
'9:01.764',-0.405,0.195
'9:01.767',-0.410,0.220
'9:01.769',-0.410,0.235
'9:01.772',-0.410,0.255
'9:01.775',-0.395,0.270
'9:01.778',-0.390,0.290
'9:01.781',-0.375,0.280
'9:01.783',-0.385,0.285
'9:01.786',-0.385,0.275
'9:01.789',-0.400,0.265
'9:01.792',-0.395,0.275
'9:01.794',-0.410,0.280
'9:01.797',-0.415,0.280
'9:01.800',-0.420,0.295
'9:01.803',-0.430,0.310
'9:01.806',-0.435,0.315
'9:01.808',-0.435,0.325
'9:01.811',-0.420,0.335
'9:01.814',-0.435,0.335
'9:01.817',-0.440,0.350
'9:01.819',-0.440,0.365
'9:01.822',-0.450,0.365
'9:01.825',-0.465,0.360
'9:01.828',-0.485,0.365
'9:01.831',-0.500,0.380
'9:01.833',-0.515,0.375
'9:01.836',-0.510,0.385
'9:01.839',-0.520,0.390
'9:01.842',-0.530,0.415
'9:01.844',-0.555,0.435
'9:01.847',-0.560,0.450
'9:01.850',-0.580,0.455
'9:01.853',-0.590,0.470
'9:01.856',-0.605,0.475
'9:01.858',-0.625,0.475
'9:01.861',-0.640,0.490
'9:01.864',-0.660,0.480
'9:01.867',-0.680,0.490
'9:01.869',-0.690,0.515
'9:01.872',-0.695,0.525
'9:01.875',-0.695,0.535
'9:01.878',-0.685,0.545
'9:01.881',-0.680,0.550
'9:01.883',-0.680,0.540
'9:01.886',-0.680,0.535
'9:01.889',-0.675,0.525
'9:01.892',-0.665,0.510
'9:01.894',-0.660,0.505
'9:01.897',-0.645,0.505
'9:01.900',-0.620,0.495
'9:01.903',-0.590,0.500
'9:01.906',-0.565,0.500
'9:01.908',-0.535,0.485
'9:01.911',-0.500,0.475
'9:01.914',-0.470,0.455
'9:01.917',-0.455,0.425
'9:01.919',-0.440,0.405
'9:01.922',-0.425,0.360
'9:01.925',-0.400,0.335
'9:01.928',-0.375,0.320
'9:01.931',-0.350,0.310
'9:01.933',-0.320,0.290
'9:01.936',-0.300,0.270
'9:01.939',-0.270,0.270
'9:01.942',-0.245,0.260
'9:01.944',-0.225,0.240
'9:01.947',-0.200,0.215
'9:01.950',-0.200,0.200
'9:01.953',-0.195,0.200
'9:01.956',-0.190,0.180
'9:01.958',-0.185,0.165
'9:01.961',-0.185,0.155
'9:01.964',-0.175,0.145
'9:01.967',-0.180,0.135
'9:01.969',-0.170,0.135
'9:01.972',-0.160,0.140
'9:01.975',-0.155,0.145
'9:01.978',-0.140,0.130
'9:01.981',-0.125,0.145
'9:01.983',-0.120,0.145
'9:01.986',-0.130,0.145
'9:01.989',-0.130,0.130
'9:01.992',-0.130,0.125
'9:01.994',-0.140,0.110
'9:01.997',-0.150,0.115
'9:02.000',-0.150,0.105
'9:02.003',-0.145,0.110
'9:02.006',-0.130,0.115
'9:02.008',-0.130,0.135
'9:02.011',-0.105,0.155
'9:02.014',-0.100,0.145
'9:02.017',-0.100,0.145
'9:02.019',-0.105,0.135
'9:02.022',-0.125,0.130
'9:02.025',-0.140,0.125
'9:02.028',-0.140,0.105
'9:02.031',-0.145,0.110
'9:02.033',-0.130,0.125
'9:02.036',-0.120,0.120
'9:02.039',-0.120,0.135
'9:02.042',-0.110,0.155
'9:02.044',-0.125,0.165
'9:02.047',-0.125,0.165
'9:02.050',-0.130,0.145
'9:02.053',-0.140,0.135
'9:02.056',-0.125,0.125
'9:02.058',-0.120,0.115
'9:02.061',-0.115,0.120
'9:02.064',-0.110,0.125
'9:02.067',-0.090,0.140
'9:02.069',-0.085,0.140
'9:02.072',-0.060,0.155
'9:02.075',-0.035,0.150
'9:02.078',0.000,0.150
'9:02.081',0.015,0.155
'9:02.083',0.040,0.175
'9:02.086',0.055,0.190
'9:02.089',0.080,0.225
'9:02.092',0.090,0.265
'9:02.094',0.105,0.275
'9:02.097',0.115,0.320
'9:02.100',0.155,0.340
'9:02.103',0.160,0.360
'9:02.106',0.200,0.375
'9:02.108',0.255,0.400
'9:02.111',0.300,0.440
'9:02.114',0.370,0.435
'9:02.117',0.455,0.450
'9:02.119',0.570,0.420
'9:02.122',0.670,0.385
'9:02.125',0.775,0.340
'9:02.128',0.855,0.305
'9:02.131',0.915,0.255
'9:02.133',0.965,0.225
'9:02.136',1.040,0.210
'9:02.139',1.140,0.180
'9:02.142',1.250,0.185
'9:02.144',1.360,0.170
'9:02.147',1.470,0.120
'9:02.150',1.555,0.080
'9:02.153',1.635,-0.010
'9:02.156',1.690,-0.105
'9:02.158',1.750,-0.190
'9:02.161',1.785,-0.295
'9:02.164',1.775,-0.375
'9:02.167',1.745,-0.445
'9:02.169',1.615,-0.490
'9:02.172',1.410,-0.535
'9:02.175',1.075,-0.560
'9:02.178',0.635,-0.610
'9:02.181',0.140,-0.675
'9:02.183',-0.340,-0.755
'9:02.186',-0.760,-0.845
'9:02.189',-1.095,-0.945
'9:02.192',-1.315,-1.020
'9:02.194',-1.420,-1.065
'9:02.197',-1.420,-1.090
'9:02.200',-1.370,-1.100
'9:02.203',-1.270,-1.085
'9:02.206',-1.165,-1.040
'9:02.208',-1.075,-0.990
'9:02.211',-1.005,-0.885
'9:02.214',-0.940,-0.780
'9:02.217',-0.870,-0.670
'9:02.219',-0.795,-0.560
'9:02.222',-0.710,-0.455
'9:02.225',-0.610,-0.355
'9:02.228',-0.530,-0.255
'9:02.231',-0.425,-0.190
'9:02.233',-0.370,-0.110
'9:02.236',-0.330,-0.060
'9:02.239',-0.325,-0.010
'9:02.242',-0.325,0.025
'9:02.244',-0.345,0.030
'9:02.247',-0.330,0.060
'9:02.250',-0.325,0.055
'9:02.253',-0.315,0.075
'9:02.256',-0.320,0.085
'9:02.258',-0.325,0.080
'9:02.261',-0.330,0.075
'9:02.264',-0.340,0.075
'9:02.267',-0.335,0.080
'9:02.269',-0.345,0.085
'9:02.272',-0.315,0.090
'9:02.275',-0.310,0.085
'9:02.278',-0.285,0.105
'9:02.281',-0.285,0.110
'9:02.283',-0.290,0.125
'9:02.286',-0.295,0.120
'9:02.289',-0.320,0.115
'9:02.292',-0.320,0.110
'9:02.294',-0.335,0.100
'9:02.297',-0.320,0.105
'9:02.300',-0.325,0.105
'9:02.303',-0.310,0.110
'9:02.306',-0.300,0.120
'9:02.308',-0.295,0.135
'9:02.311',-0.300,0.150
'9:02.314',-0.300,0.145
'9:02.317',-0.295,0.155
'9:02.319',-0.300,0.140
'9:02.322',-0.300,0.145
'9:02.325',-0.305,0.145
'9:02.328',-0.315,0.145
'9:02.331',-0.320,0.160
'9:02.333',-0.330,0.175
'9:02.336',-0.335,0.180
'9:02.339',-0.335,0.190
'9:02.342',-0.330,0.205
'9:02.344',-0.325,0.220
'9:02.347',-0.330,0.225
'9:02.350',-0.325,0.235
'9:02.353',-0.330,0.240
'9:02.356',-0.310,0.265
'9:02.358',-0.305,0.270
'9:02.361',-0.300,0.285
'9:02.364',-0.300,0.275
'9:02.367',-0.290,0.295
'9:02.369',-0.270,0.315
'9:02.372',-0.260,0.330
'9:02.375',-0.245,0.335
'9:02.378',-0.225,0.365
'9:02.381',-0.190,0.385
'9:02.383',-0.195,0.395
'9:02.386',-0.165,0.415
'9:02.389',-0.155,0.420
'9:02.392',-0.145,0.425
'9:02.394',-0.125,0.425
'9:02.397',-0.105,0.425
'9:02.400',-0.100,0.430
'9:02.403',-0.070,0.445
'9:02.406',-0.045,0.455
'9:02.408',-0.015,0.470
'9:02.411',0.005,0.490
'9:02.414',0.020,0.495
'9:02.417',0.025,0.485
'9:02.419',0.020,0.490
'9:02.422',0.020,0.465
'9:02.425',0.015,0.445
'9:02.428',0.015,0.450
'9:02.431',0.025,0.430
'9:02.433',0.025,0.435
'9:02.436',0.015,0.425
'9:02.439',0.005,0.435
'9:02.442',-0.005,0.420
'9:02.444',-0.020,0.425
'9:02.447',-0.010,0.390
'9:02.450',-0.010,0.370
'9:02.453',-0.020,0.345
'9:02.456',-0.030,0.315
'9:02.458',-0.045,0.300
'9:02.461',-0.080,0.285
'9:02.464',-0.080,0.270
'9:02.467',-0.085,0.265
'9:02.469',-0.085,0.245
'9:02.472',-0.085,0.245
'9:02.475',-0.085,0.240
'9:02.478',-0.085,0.230
'9:02.481',-0.080,0.220
'9:02.483',-0.095,0.195
'9:02.486',-0.100,0.195
'9:02.489',-0.115,0.185
'9:02.492',-0.120,0.165
'9:02.494',-0.120,0.175
'9:02.497',-0.120,0.175
'9:02.500',-0.125,0.175
'9:02.503',-0.125,0.165
'9:02.506',-0.120,0.170
'9:02.508',-0.110,0.160
'9:02.511',-0.120,0.170
'9:02.514',-0.115,0.165
'9:02.517',-0.110,0.175
'9:02.519',-0.105,0.175
'9:02.522',-0.110,0.175
'9:02.525',-0.095,0.150
'9:02.528',-0.100,0.145
'9:02.531',-0.110,0.140
'9:02.533',-0.110,0.130
'9:02.536',-0.120,0.130
'9:02.539',-0.120,0.145
'9:02.542',-0.120,0.145
'9:02.544',-0.095,0.155
'9:02.547',-0.090,0.160
'9:02.550',-0.100,0.165
'9:02.553',-0.090,0.180
'9:02.556',-0.085,0.155
'9:02.558',-0.085,0.140
'9:02.561',-0.095,0.140
'9:02.564',-0.090,0.130
'9:02.567',-0.090,0.150
'9:02.569',-0.090,0.160
'9:02.572',-0.090,0.175
'9:02.575',-0.090,0.175
'9:02.578',-0.070,0.185
'9:02.581',-0.055,0.170
'9:02.583',-0.065,0.175
'9:02.586',-0.055,0.160
'9:02.589',-0.070,0.150
'9:02.592',-0.085,0.145
'9:02.594',-0.090,0.150
'9:02.597',-0.090,0.155
'9:02.600',-0.085,0.150
'9:02.603',-0.090,0.165
'9:02.606',-0.070,0.155
'9:02.608',-0.070,0.155
'9:02.611',-0.075,0.155
'9:02.614',-0.085,0.155
'9:02.617',-0.100,0.150
'9:02.619',-0.090,0.150
'9:02.622',-0.080,0.150
'9:02.625',-0.095,0.130
'9:02.628',-0.075,0.135
'9:02.631',-0.085,0.130
'9:02.633',-0.080,0.135
'9:02.636',-0.095,0.140
'9:02.639',-0.100,0.140
'9:02.642',-0.105,0.140
'9:02.644',-0.090,0.145
'9:02.647',-0.065,0.145
'9:02.650',-0.055,0.165
'9:02.653',-0.050,0.155
'9:02.656',-0.045,0.140
'9:02.658',-0.050,0.140
'9:02.661',-0.050,0.135
'9:02.664',-0.055,0.135
'9:02.667',-0.040,0.155
'9:02.669',-0.015,0.180
'9:02.672',0.010,0.210
'9:02.675',0.035,0.260
'9:02.678',0.055,0.300
'9:02.681',0.065,0.320
'9:02.683',0.075,0.330
'9:02.686',0.060,0.330
'9:02.689',0.075,0.300
'9:02.692',0.085,0.295
'9:02.694',0.110,0.285
'9:02.697',0.155,0.280
'9:02.700',0.210,0.260
'9:02.703',0.260,0.260
'9:02.706',0.320,0.250
'9:02.708',0.350,0.240
'9:02.711',0.385,0.210
'9:02.714',0.395,0.180
'9:02.717',0.400,0.170
'9:02.719',0.395,0.150
'9:02.722',0.425,0.160
'9:02.725',0.480,0.145
'9:02.728',0.545,0.145
'9:02.731',0.620,0.125
'9:02.733',0.720,0.110
'9:02.736',0.790,0.090
'9:02.739',0.890,0.065
'9:02.742',0.985,0.070
'9:02.744',1.070,0.070
'9:02.747',1.150,0.055
'9:02.750',1.150,0.065
'9:02.753',1.135,0.065
'9:02.756',1.045,0.035
'9:02.758',0.860,0.000
'9:02.761',0.585,-0.045
'9:02.764',0.180,-0.095
'9:02.767',-0.270,-0.145
'9:02.769',-0.725,-0.185
'9:02.772',-1.115,-0.220
'9:02.775',-1.440,-0.240
'9:02.778',-1.695,-0.275
'9:02.781',-1.905,-0.295
'9:02.783',-2.085,-0.325
'9:02.786',-2.225,-0.310
'9:02.789',-2.340,-0.270
'9:02.792',-2.395,-0.170
'9:02.794',-2.425,-0.080
'9:02.797',-2.420,0.055
'9:02.800',-2.395,0.195
'9:02.803',-2.370,0.355
'9:02.806',-2.300,0.500
'9:02.808',-2.235,0.635
'9:02.811',-2.115,0.735
'9:02.814',-1.985,0.810
'9:02.817',-1.850,0.870
'9:02.819',-1.725,0.915
'9:02.822',-1.625,0.945
'9:02.825',-1.540,0.980
'9:02.828',-1.485,1.010
'9:02.831',-1.425,1.015
'9:02.833',-1.345,1.005
'9:02.836',-1.285,0.970
'9:02.839',-1.200,0.895
'9:02.842',-1.115,0.800
'9:02.844',-1.050,0.625
'9:02.847',-0.990,0.435
'9:02.850',-0.930,0.210
'9:02.853',-0.870,0.005
'9:02.856',-0.820,-0.175
'9:02.858',-0.740,-0.265
'9:02.861',-0.670,-0.305
'9:02.864',-0.580,-0.280
'9:02.867',-0.485,-0.240
'9:02.869',-0.370,-0.170
'9:02.872',-0.230,-0.120
'9:02.875',-0.105,-0.090
'9:02.878',0.015,-0.060
'9:02.881',0.100,-0.045
'9:02.883',0.145,-0.010
'9:02.886',0.175,-0.020
'9:02.889',0.180,-0.010
'9:02.892',0.180,-0.010
'9:02.894',0.185,-0.020
'9:02.897',0.180,-0.040
'9:02.900',0.195,-0.015
'9:02.903',0.205,-0.020
'9:02.906',0.240,-0.025
'9:02.908',0.270,-0.030
'9:02.911',0.290,-0.020
'9:02.914',0.290,-0.030
'9:02.917',0.300,-0.010
'9:02.919',0.300,-0.015
'9:02.922',0.310,-0.030
'9:02.925',0.315,-0.045
'9:02.928',0.325,-0.045
'9:02.931',0.330,-0.055
'9:02.933',0.350,-0.055
'9:02.936',0.360,-0.040
'9:02.939',0.370,-0.035
'9:02.942',0.385,-0.020
'9:02.944',0.390,-0.005
'9:02.947',0.395,0.000
'9:02.950',0.410,-0.015
'9:02.953',0.430,-0.015
'9:02.956',0.445,-0.035
'9:02.958',0.480,-0.040
'9:02.961',0.495,-0.040
'9:02.964',0.520,-0.045
'9:02.967',0.540,-0.035
'9:02.969',0.565,-0.030
'9:02.972',0.580,-0.020
'9:02.975',0.600,-0.005
'9:02.978',0.635,-0.005
'9:02.981',0.645,-0.010
'9:02.983',0.670,-0.010
'9:02.986',0.705,-0.005
'9:02.989',0.730,-0.015
'9:02.992',0.760,-0.010
'9:02.994',0.795,-0.025
'9:02.997',0.820,-0.030
'9:03.000',0.845,-0.010
'9:03.003',0.875,-0.005
'9:03.006',0.905,-0.015
'9:03.008',0.930,-0.010
'9:03.011',0.945,-0.015
'9:03.014',0.945,-0.020
'9:03.017',0.965,-0.025
'9:03.019',0.975,-0.035
'9:03.022',0.985,-0.030
'9:03.025',0.980,-0.035
'9:03.028',0.975,-0.050
'9:03.031',0.970,-0.055
'9:03.033',0.950,-0.050
'9:03.036',0.940,-0.055
'9:03.039',0.930,-0.060
'9:03.042',0.915,-0.055
'9:03.044',0.880,-0.045
'9:03.047',0.865,-0.050
'9:03.050',0.825,-0.055
'9:03.053',0.810,-0.060
'9:03.056',0.770,-0.050
'9:03.058',0.720,-0.060
'9:03.061',0.685,-0.065
'9:03.064',0.635,-0.075
'9:03.067',0.595,-0.075
'9:03.069',0.555,-0.050
'9:03.072',0.515,-0.045
'9:03.075',0.490,-0.025
'9:03.078',0.480,0.000
'9:03.081',0.435,0.015
'9:03.083',0.405,0.025
'9:03.086',0.365,0.030
'9:03.089',0.310,0.030
'9:03.092',0.270,0.030
'9:03.094',0.235,0.040
'9:03.097',0.210,0.050
'9:03.100',0.185,0.060
'9:03.103',0.185,0.075
'9:03.106',0.145,0.100
'9:03.108',0.115,0.115
'9:03.111',0.095,0.145
'9:03.114',0.070,0.140
'9:03.117',0.055,0.140
'9:03.119',0.040,0.140
'9:03.122',0.025,0.135
'9:03.125',0.000,0.135
'9:03.128',0.010,0.145
'9:03.131',0.005,0.155
'9:03.133',0.015,0.155
'9:03.136',0.000,0.170
'9:03.139',0.000,0.150
'9:03.142',0.000,0.160
'9:03.144',0.005,0.175
'9:03.147',0.000,0.165
'9:03.150',-0.005,0.145
'9:03.153',0.000,0.155
'9:03.156',-0.010,0.150
'9:03.158',-0.015,0.140
'9:03.161',-0.010,0.145
'9:03.164',-0.020,0.140
'9:03.167',-0.010,0.145
'9:03.169',-0.005,0.135
'9:03.172',-0.010,0.155
'9:03.175',0.000,0.145
'9:03.178',0.005,0.150
'9:03.181',0.010,0.145
'9:03.183',0.015,0.155
'9:03.186',0.025,0.145
'9:03.189',0.015,0.145
'9:03.192',0.005,0.130
'9:03.194',-0.010,0.130
'9:03.197',-0.020,0.115
'9:03.200',-0.025,0.125
'9:03.203',-0.015,0.120
'9:03.206',-0.005,0.130
'9:03.208',0.000,0.145
'9:03.211',-0.005,0.150
'9:03.214',-0.005,0.140
'9:03.217',0.000,0.150
'9:03.219',-0.005,0.140
'9:03.222',-0.005,0.130
'9:03.225',-0.010,0.120
'9:03.228',-0.020,0.120
'9:03.231',-0.025,0.120
'9:03.233',-0.030,0.120
'9:03.236',-0.040,0.140
'9:03.239',-0.045,0.135
'9:03.242',-0.045,0.145
'9:03.244',-0.020,0.150
'9:03.247',-0.020,0.140
'9:03.250',-0.015,0.135
'9:03.253',-0.030,0.120
'9:03.256',-0.025,0.125
'9:03.258',-0.020,0.120
'9:03.261',-0.020,0.130
'9:03.264',-0.025,0.135
'9:03.267',-0.020,0.145
'9:03.269',-0.010,0.150
'9:03.272',-0.005,0.165
'9:03.275',0.015,0.190
'9:03.278',0.030,0.220
'9:03.281',0.050,0.245
'9:03.283',0.055,0.275
'9:03.286',0.075,0.295
'9:03.289',0.100,0.305
'9:03.292',0.095,0.315
'9:03.294',0.100,0.305
'9:03.297',0.100,0.300
'9:03.300',0.120,0.310
'9:03.303',0.145,0.300
'9:03.306',0.190,0.295
'9:03.308',0.230,0.280
'9:03.311',0.265,0.255
'9:03.314',0.285,0.210
'9:03.317',0.280,0.190
'9:03.319',0.270,0.170
'9:03.322',0.230,0.145
'9:03.325',0.220,0.130
'9:03.328',0.210,0.130
'9:03.331',0.200,0.120
'9:03.333',0.180,0.125
'9:03.336',0.190,0.120
'9:03.339',0.190,0.100
'9:03.342',0.185,0.100
'9:03.344',0.165,0.085
'9:03.347',0.150,0.075
'9:03.350',0.125,0.060
'9:03.353',0.095,0.055
'9:03.356',0.065,0.060
'9:03.358',0.030,0.070
'9:03.361',-0.010,0.085
'9:03.364',-0.045,0.100
'9:03.367',-0.080,0.100
'9:03.369',-0.090,0.110
'9:03.372',-0.090,0.105
'9:03.375',-0.095,0.110
'9:03.378',-0.115,0.115
'9:03.381',-0.125,0.115
'9:03.383',-0.125,0.110
'9:03.386',-0.140,0.095
'9:03.389',-0.130,0.085
'9:03.392',-0.145,0.075
'9:03.394',-0.140,0.080
'9:03.397',-0.150,0.075
'9:03.400',-0.140,0.070
'9:03.403',-0.135,0.085
'9:03.406',-0.130,0.080
'9:03.408',-0.120,0.085
'9:03.411',-0.120,0.105
'9:03.414',-0.115,0.130
'9:03.417',-0.125,0.150
'9:03.419',-0.120,0.205
'9:03.422',-0.090,0.245
'9:03.425',-0.015,0.285
'9:03.428',0.095,0.275
'9:03.431',0.270,0.220
'9:03.433',0.510,0.105
'9:03.436',0.745,-0.060
'9:03.439',1.000,-0.265
'9:03.442',1.230,-0.530
'9:03.444',1.450,-0.840
'9:03.447',1.655,-1.215
'9:03.450',1.820,-1.575
'9:03.453',1.930,-1.870
'9:03.456',1.965,-2.025
'9:03.458',1.935,-2.070
'9:03.461',1.825,-2.010
'9:03.464',1.625,-1.875
'9:03.467',1.320,-1.685
'9:03.469',0.955,-1.460
'9:03.472',0.600,-1.200
'9:03.475',0.315,-0.955
'9:03.478',0.110,-0.735
'9:03.481',-0.015,-0.575
'9:03.483',-0.085,-0.450
'9:03.486',-0.110,-0.355
'9:03.489',-0.120,-0.290
'9:03.492',-0.135,-0.220
'9:03.494',-0.175,-0.130
'9:03.497',-0.215,-0.040
'9:03.500',-0.260,0.025
'9:03.503',-0.285,0.090
'9:03.506',-0.300,0.110
'9:03.508',-0.310,0.130
'9:03.511',-0.305,0.150
'9:03.514',-0.305,0.160
'9:03.517',-0.295,0.175
'9:03.519',-0.300,0.180
'9:03.522',-0.310,0.185
'9:03.525',-0.315,0.200
'9:03.528',-0.320,0.200
'9:03.531',-0.325,0.200
'9:03.533',-0.335,0.210
'9:03.536',-0.345,0.215
'9:03.539',-0.335,0.225
'9:03.542',-0.340,0.235
'9:03.544',-0.335,0.260
'9:03.547',-0.340,0.260
'9:03.550',-0.345,0.265
'9:03.553',-0.340,0.275
'9:03.556',-0.350,0.270
'9:03.558',-0.350,0.265
'9:03.561',-0.365,0.270
'9:03.564',-0.375,0.265
'9:03.567',-0.370,0.290
'9:03.569',-0.375,0.305
'9:03.572',-0.360,0.320
'9:03.575',-0.370,0.335
'9:03.578',-0.370,0.345
'9:03.581',-0.370,0.355
'9:03.583',-0.380,0.345
'9:03.586',-0.390,0.360
'9:03.589',-0.390,0.355
'9:03.592',-0.405,0.375
'9:03.594',-0.415,0.385
'9:03.597',-0.440,0.390
'9:03.600',-0.450,0.400
'9:03.603',-0.450,0.410
'9:03.606',-0.465,0.425
'9:03.608',-0.460,0.435
'9:03.611',-0.470,0.440
'9:03.614',-0.485,0.460
'9:03.617',-0.495,0.475
'9:03.619',-0.515,0.490
'9:03.622',-0.540,0.490
'9:03.625',-0.565,0.505
'9:03.628',-0.590,0.505
'9:03.631',-0.620,0.510
'9:03.633',-0.625,0.525
'9:03.636',-0.645,0.550
'9:03.639',-0.660,0.555
'9:03.642',-0.665,0.565
'9:03.644',-0.670,0.585
'9:03.647',-0.680,0.610
'9:03.650',-0.695,0.605
'9:03.653',-0.700,0.600
'9:03.656',-0.720,0.590
'9:03.658',-0.730,0.590
'9:03.661',-0.750,0.595
'9:03.664',-0.760,0.595
'9:03.667',-0.750,0.600
'9:03.669',-0.745,0.595
'9:03.672',-0.725,0.610
'9:03.675',-0.715,0.605
'9:03.678',-0.695,0.595
'9:03.681',-0.675,0.590
'9:03.683',-0.645,0.570
'9:03.686',-0.640,0.560
'9:03.689',-0.625,0.550
'9:03.692',-0.600,0.520
'9:03.694',-0.575,0.500
'9:03.697',-0.555,0.475
'9:03.700',-0.505,0.450
'9:03.703',-0.470,0.440
'9:03.706',-0.445,0.405
'9:03.708',-0.415,0.405
'9:03.711',-0.385,0.385
'9:03.714',-0.355,0.355
'9:03.717',-0.315,0.335
'9:03.719',-0.285,0.305
'9:03.722',-0.270,0.290
'9:03.725',-0.255,0.265
'9:03.728',-0.235,0.250
'9:03.731',-0.225,0.215
'9:03.733',-0.220,0.210
'9:03.736',-0.225,0.210
'9:03.739',-0.210,0.200
'9:03.742',-0.185,0.195
'9:03.744',-0.160,0.200
'9:03.747',-0.145,0.195
'9:03.750',-0.145,0.175
'9:03.753',-0.145,0.175
'9:03.756',-0.135,0.165
'9:03.758',-0.150,0.155
'9:03.761',-0.145,0.140
'9:03.764',-0.170,0.145
'9:03.767',-0.155,0.150
'9:03.769',-0.155,0.135
'9:03.772',-0.135,0.145
'9:03.775',-0.135,0.155
'9:03.778',-0.135,0.170
'9:03.781',-0.140,0.165
'9:03.783',-0.135,0.170
'9:03.786',-0.125,0.165
'9:03.789',-0.135,0.150
'9:03.792',-0.135,0.145
'9:03.794',-0.150,0.135
'9:03.797',-0.155,0.135
'9:03.800',-0.155,0.145
'9:03.803',-0.170,0.140
'9:03.806',-0.165,0.150
'9:03.808',-0.155,0.160
'9:03.811',-0.140,0.165
'9:03.814',-0.130,0.165
'9:03.817',-0.135,0.165
'9:03.819',-0.120,0.155
'9:03.822',-0.130,0.155
'9:03.825',-0.135,0.140
'9:03.828',-0.160,0.140
'9:03.831',-0.165,0.145
'9:03.833',-0.160,0.150
'9:03.836',-0.155,0.155
'9:03.839',-0.145,0.170
'9:03.842',-0.140,0.170
'9:03.844',-0.135,0.170
'9:03.847',-0.115,0.155
'9:03.850',-0.125,0.150
'9:03.853',-0.120,0.150
'9:03.856',-0.125,0.160
'9:03.858',-0.115,0.180
'9:03.861',-0.100,0.200
'9:03.864',-0.085,0.225
'9:03.867',-0.065,0.250
'9:03.869',-0.045,0.280
'9:03.872',-0.030,0.310
'9:03.875',-0.015,0.340
'9:03.878',0.000,0.345
'9:03.881',0.010,0.335
'9:03.883',0.020,0.335
'9:03.886',0.040,0.345
'9:03.889',0.065,0.325
'9:03.892',0.100,0.315
'9:03.894',0.140,0.300
'9:03.897',0.170,0.260
'9:03.900',0.195,0.230
'9:03.903',0.210,0.200
'9:03.906',0.205,0.175
'9:03.908',0.190,0.155
'9:03.911',0.165,0.165
'9:03.914',0.145,0.170
'9:03.917',0.145,0.160
'9:03.919',0.145,0.170
'9:03.922',0.150,0.135
'9:03.925',0.155,0.105
'9:03.928',0.130,0.085
'9:03.931',0.115,0.040
'9:03.933',0.090,0.030
'9:03.936',0.060,0.030
'9:03.939',0.035,0.035
'9:03.942',0.005,0.055
'9:03.944',-0.030,0.085
'9:03.947',-0.050,0.105
'9:03.950',-0.070,0.110
'9:03.953',-0.090,0.110
'9:03.956',-0.095,0.095
'9:03.958',-0.110,0.090
'9:03.961',-0.140,0.090
'9:03.964',-0.145,0.085
'9:03.967',-0.165,0.075
'9:03.969',-0.170,0.085
'9:03.972',-0.165,0.095
'9:03.975',-0.160,0.090
'9:03.978',-0.160,0.100
'9:03.981',-0.150,0.095
'9:03.983',-0.155,0.080
'9:03.986',-0.145,0.085
'9:03.989',-0.125,0.075
'9:03.992',-0.135,0.075
'9:03.994',-0.140,0.075
'9:03.997',-0.135,0.075
'9:04.000',-0.125,0.080
'9:04.003',-0.145,0.095
'9:04.006',-0.140,0.140
'9:04.008',-0.125,0.195
'9:04.011',-0.095,0.240
'9:04.014',0.000,0.275
'9:04.017',0.145,0.280
'9:04.019',0.335,0.245
'9:04.022',0.535,0.145
'9:04.025',0.750,-0.015
'9:04.028',0.950,-0.205
'9:04.031',1.160,-0.455
'9:04.033',1.345,-0.750
'9:04.036',1.560,-1.085
'9:04.039',1.740,-1.415
'9:04.042',1.875,-1.745
'9:04.044',1.955,-1.945
'9:04.047',2.000,-2.065
'9:04.050',1.950,-2.075
'9:04.053',1.830,-1.990
'9:04.056',1.625,-1.860
'9:04.058',1.320,-1.695
'9:04.061',0.975,-1.505
'9:04.064',0.625,-1.290
'9:04.067',0.335,-1.055
'9:04.069',0.130,-0.845
'9:04.072',0.000,-0.650
'9:04.075',-0.065,-0.515
'9:04.078',-0.100,-0.395
'9:04.081',-0.105,-0.310
'9:04.083',-0.125,-0.235
'9:04.086',-0.150,-0.165
'9:04.089',-0.200,-0.090
'9:04.092',-0.245,-0.025
'9:04.094',-0.275,0.040
'9:04.097',-0.300,0.085
'9:04.100',-0.315,0.110
'9:04.103',-0.320,0.135
'9:04.106',-0.315,0.145
'9:04.108',-0.315,0.160
'9:04.111',-0.315,0.165
'9:04.114',-0.320,0.170
'9:04.117',-0.310,0.170
'9:04.119',-0.320,0.175
'9:04.122',-0.315,0.185
'9:04.125',-0.325,0.195
'9:04.128',-0.325,0.190
'9:04.131',-0.350,0.185
'9:04.133',-0.345,0.200
'9:04.136',-0.340,0.210
'9:04.139',-0.350,0.215
'9:04.142',-0.345,0.235
'9:04.144',-0.355,0.250
'9:04.147',-0.360,0.260
'9:04.150',-0.365,0.260
'9:04.153',-0.365,0.275
'9:04.156',-0.360,0.270
'9:04.158',-0.365,0.265
'9:04.161',-0.365,0.265
'9:04.164',-0.380,0.285
'9:04.167',-0.385,0.305
'9:04.169',-0.390,0.305
'9:04.172',-0.385,0.305
'9:04.175',-0.390,0.320
'9:04.178',-0.400,0.325
'9:04.181',-0.405,0.355
'9:04.183',-0.410,0.365
'9:04.186',-0.405,0.360
'9:04.189',-0.420,0.350
'9:04.192',-0.435,0.360
'9:04.194',-0.450,0.365
'9:04.197',-0.460,0.380
'9:04.200',-0.465,0.395
'9:04.203',-0.470,0.415
'9:04.206',-0.470,0.430
'9:04.208',-0.495,0.430
'9:04.211',-0.490,0.450
'9:04.214',-0.485,0.450
'9:04.217',-0.515,0.450
'9:04.219',-0.525,0.455
'9:04.222',-0.560,0.465
'9:04.225',-0.560,0.475
'9:04.228',-0.575,0.480
'9:04.231',-0.580,0.500
'9:04.233',-0.580,0.510
'9:04.236',-0.595,0.505
'9:04.239',-0.605,0.525
'9:04.242',-0.620,0.530
'9:04.244',-0.640,0.545
'9:04.247',-0.625,0.560
'9:04.250',-0.630,0.560
'9:04.253',-0.645,0.565
'9:04.256',-0.630,0.550
'9:04.258',-0.630,0.555
'9:04.261',-0.625,0.555
'9:04.264',-0.635,0.545
'9:04.267',-0.605,0.540
'9:04.269',-0.590,0.540
'9:04.272',-0.585,0.540
'9:04.275',-0.545,0.540
'9:04.278',-0.515,0.550
'9:04.281',-0.475,0.520
'9:04.283',-0.445,0.515
'9:04.286',-0.415,0.485
'9:04.289',-0.390,0.450
'9:04.292',-0.380,0.405
'9:04.294',-0.355,0.385
'9:04.297',-0.340,0.360
'9:04.300',-0.320,0.345
'9:04.303',-0.300,0.325
'9:04.306',-0.275,0.315
'9:04.308',-0.240,0.295
'9:04.311',-0.190,0.280
'9:04.314',-0.165,0.270
'9:04.317',-0.145,0.245
'9:04.319',-0.130,0.220
'9:04.322',-0.135,0.200
'9:04.325',-0.135,0.190
'9:04.328',-0.150,0.170
'9:04.331',-0.145,0.160
'9:04.333',-0.140,0.155
'9:04.336',-0.140,0.160
'9:04.339',-0.135,0.165
'9:04.342',-0.135,0.155
'9:04.344',-0.145,0.155
'9:04.347',-0.130,0.145
'9:04.350',-0.125,0.150
'9:04.353',-0.115,0.145
'9:04.356',-0.110,0.145
'9:04.358',-0.110,0.135
'9:04.361',-0.115,0.135
'9:04.364',-0.125,0.130
'9:04.367',-0.130,0.115
'9:04.369',-0.135,0.120
'9:04.372',-0.130,0.125
'9:04.375',-0.130,0.130
'9:04.378',-0.120,0.140
'9:04.381',-0.105,0.150
'9:04.383',-0.110,0.165
'9:04.386',-0.100,0.145
'9:04.389',-0.110,0.145
'9:04.392',-0.110,0.140
'9:04.394',-0.125,0.125
'9:04.397',-0.135,0.115
'9:04.400',-0.130,0.120
'9:04.403',-0.130,0.135
'9:04.406',-0.115,0.130
'9:04.408',-0.110,0.140
'9:04.411',-0.100,0.150
'9:04.414',-0.105,0.150
'9:04.417',-0.115,0.145
'9:04.419',-0.130,0.150
'9:04.422',-0.120,0.140
'9:04.425',-0.150,0.130
'9:04.428',-0.140,0.115
'9:04.431',-0.135,0.125
'9:04.433',-0.135,0.130
'9:04.436',-0.130,0.140
'9:04.439',-0.110,0.145
'9:04.442',-0.105,0.150
'9:04.444',-0.085,0.160
'9:04.447',-0.065,0.175
'9:04.450',-0.050,0.180
'9:04.453',-0.035,0.190
'9:04.456',-0.030,0.200
'9:04.458',-0.015,0.215
'9:04.461',-0.015,0.235
'9:04.464',-0.005,0.260
'9:04.467',0.020,0.280
'9:04.469',0.025,0.300
'9:04.472',0.035,0.315
'9:04.475',0.040,0.315
'9:04.478',0.055,0.325
'9:04.481',0.090,0.330
'9:04.483',0.125,0.325
'9:04.486',0.165,0.305
'9:04.489',0.190,0.270
'9:04.492',0.230,0.245
'9:04.494',0.225,0.210
'9:04.497',0.215,0.175
'9:04.500',0.200,0.145
'9:04.503',0.175,0.145
'9:04.506',0.160,0.145
'9:04.508',0.160,0.155
'9:04.511',0.165,0.170
'9:04.514',0.155,0.150
'9:04.517',0.165,0.130
'9:04.519',0.185,0.105
'9:04.522',0.160,0.075
'9:04.525',0.125,0.045
'9:04.528',0.090,0.030
'9:04.531',0.060,0.020
'9:04.533',0.030,0.040
'9:04.536',-0.010,0.055
'9:04.539',-0.035,0.080
'9:04.542',-0.040,0.095
'9:04.544',-0.050,0.110
'9:04.547',-0.055,0.115
'9:04.550',-0.075,0.110
'9:04.553',-0.085,0.110
'9:04.556',-0.115,0.090
'9:04.558',-0.120,0.085
'9:04.561',-0.140,0.070
'9:04.564',-0.140,0.070
'9:04.567',-0.145,0.075
'9:04.569',-0.130,0.075
'9:04.572',-0.120,0.095
'9:04.575',-0.125,0.095
'9:04.578',-0.115,0.100
'9:04.581',-0.105,0.080
'9:04.583',-0.105,0.085
'9:04.586',-0.105,0.075
'9:04.589',-0.110,0.080
'9:04.592',-0.115,0.085
'9:04.594',-0.130,0.095
'9:04.597',-0.140,0.135
'9:04.600',-0.105,0.170
'9:04.603',-0.065,0.235
'9:04.606',0.020,0.265
'9:04.608',0.170,0.270
'9:04.611',0.360,0.230
'9:04.614',0.585,0.135
'9:04.617',0.810,-0.015
'9:04.619',1.020,-0.195
'9:04.622',1.225,-0.425
'9:04.625',1.435,-0.725
'9:04.628',1.620,-1.050
'9:04.631',1.775,-1.395
'9:04.633',1.910,-1.690
'9:04.636',1.985,-1.905
'9:04.639',2.000,-1.990
'9:04.642',1.965,-1.985
'9:04.644',1.840,-1.890
'9:04.647',1.605,-1.745
'9:04.650',1.265,-1.570
'9:04.653',0.875,-1.365
'9:04.656',0.525,-1.150
'9:04.658',0.245,-0.925
'9:04.661',0.080,-0.760
'9:04.664',-0.020,-0.605
'9:04.667',-0.070,-0.500
'9:04.669',-0.065,-0.395
'9:04.672',-0.070,-0.310
'9:04.675',-0.105,-0.220
'9:04.678',-0.130,-0.125
'9:04.681',-0.185,-0.055
'9:04.683',-0.230,0.015
'9:04.686',-0.260,0.065
'9:04.689',-0.285,0.095
'9:04.692',-0.300,0.105
'9:04.694',-0.300,0.115
'9:04.697',-0.290,0.115
'9:04.700',-0.295,0.125
'9:04.703',-0.300,0.140
'9:04.706',-0.280,0.155
'9:04.708',-0.290,0.175
'9:04.711',-0.285,0.185
'9:04.714',-0.285,0.205
'9:04.717',-0.300,0.195
'9:04.719',-0.295,0.200
'9:04.722',-0.300,0.210
'9:04.725',-0.305,0.205
'9:04.728',-0.320,0.210
'9:04.731',-0.345,0.220
'9:04.733',-0.360,0.225
'9:04.736',-0.355,0.235
'9:04.739',-0.340,0.240
'9:04.742',-0.325,0.245
'9:04.744',-0.320,0.250
'9:04.747',-0.315,0.260
'9:04.750',-0.315,0.260
'9:04.753',-0.320,0.270
'9:04.756',-0.325,0.275
'9:04.758',-0.335,0.270
'9:04.761',-0.350,0.270
'9:04.764',-0.360,0.290
'9:04.767',-0.360,0.300
'9:04.769',-0.360,0.325
'9:04.772',-0.355,0.340
'9:04.775',-0.360,0.335
'9:04.778',-0.370,0.360
'9:04.781',-0.375,0.360
'9:04.783',-0.380,0.370
'9:04.786',-0.385,0.370
'9:04.789',-0.400,0.365
'9:04.792',-0.430,0.365
'9:04.794',-0.420,0.370
'9:04.797',-0.435,0.370
'9:04.800',-0.445,0.380
'9:04.803',-0.450,0.410
'9:04.806',-0.470,0.420
'9:04.808',-0.470,0.445
'9:04.811',-0.485,0.445
'9:04.814',-0.490,0.455
'9:04.817',-0.510,0.460
'9:04.819',-0.525,0.460
'9:04.822',-0.550,0.465
'9:04.825',-0.560,0.475
'9:04.828',-0.585,0.485
'9:04.831',-0.605,0.495
'9:04.833',-0.610,0.495
'9:04.836',-0.615,0.515
'9:04.839',-0.625,0.535
'9:04.842',-0.620,0.535
'9:04.844',-0.620,0.550
'9:04.847',-0.625,0.560
'9:04.850',-0.625,0.570
'9:04.853',-0.620,0.550
'9:04.856',-0.620,0.550
'9:04.858',-0.625,0.550
'9:04.861',-0.620,0.545
'9:04.864',-0.615,0.530
'9:04.867',-0.585,0.530
'9:04.869',-0.580,0.520
'9:04.872',-0.540,0.495
'9:04.875',-0.500,0.490
'9:04.878',-0.470,0.485
'9:04.881',-0.435,0.475
'9:04.883',-0.410,0.455
'9:04.886',-0.375,0.425
'9:04.889',-0.355,0.405
'9:04.892',-0.325,0.375
'9:04.894',-0.320,0.340
'9:04.897',-0.310,0.310
'9:04.900',-0.270,0.295
'9:04.903',-0.245,0.275
'9:04.906',-0.215,0.265
'9:04.908',-0.195,0.240
'9:04.911',-0.170,0.240
'9:04.914',-0.130,0.230
'9:04.917',-0.100,0.215
'9:04.919',-0.090,0.190
'9:04.922',-0.100,0.180
'9:04.925',-0.100,0.165
'9:04.928',-0.100,0.150
'9:04.931',-0.095,0.145
'9:04.933',-0.095,0.140
'9:04.936',-0.105,0.145
'9:04.939',-0.100,0.150
'9:04.942',-0.090,0.150
'9:04.944',-0.090,0.150
'9:04.947',-0.080,0.140
'9:04.950',-0.090,0.150
'9:04.953',-0.080,0.130
'9:04.956',-0.085,0.130
'9:04.958',-0.080,0.120
'9:04.961',-0.095,0.115
'9:04.964',-0.090,0.115
'9:04.967',-0.090,0.120
'9:04.969',-0.100,0.125
'9:04.972',-0.105,0.120
'9:04.975',-0.100,0.115
'9:04.978',-0.085,0.130
'9:04.981',-0.080,0.130
'9:04.983',-0.055,0.125
'9:04.986',-0.050,0.130
'9:04.989',-0.070,0.120
'9:04.992',-0.070,0.110
'9:04.994',-0.075,0.120
'9:04.997',-0.085,0.100
'9:05.000',-0.090,0.105
'9:05.003',-0.095,0.110
'9:05.006',-0.095,0.125
'9:05.008',-0.080,0.115
'9:05.011',-0.055,0.130
'9:05.014',-0.045,0.150
'9:05.017',-0.020,0.155
'9:05.019',-0.030,0.150
'9:05.022',-0.030,0.135
'9:05.025',-0.035,0.130
'9:05.028',-0.040,0.120
'9:05.031',-0.045,0.130
'9:05.033',-0.040,0.160
'9:05.036',-0.025,0.185
'9:05.039',-0.010,0.215
'9:05.042',0.020,0.250
'9:05.044',0.050,0.285
'9:05.047',0.070,0.300
'9:05.050',0.095,0.305
'9:05.053',0.110,0.310
'9:05.056',0.110,0.305
'9:05.058',0.125,0.300
'9:05.061',0.145,0.295
'9:05.064',0.170,0.285
'9:05.067',0.200,0.275
'9:05.069',0.220,0.250
'9:05.072',0.245,0.230
'9:05.075',0.255,0.195
'9:05.078',0.255,0.165
'9:05.081',0.255,0.155
'9:05.083',0.235,0.135
'9:05.086',0.240,0.125
'9:05.089',0.230,0.145
'9:05.092',0.235,0.135
'9:05.094',0.240,0.120
'9:05.097',0.240,0.090
'9:05.100',0.230,0.080
'9:05.103',0.205,0.060
'9:05.106',0.170,0.045
'9:05.108',0.155,0.035
'9:05.111',0.125,0.050
'9:05.114',0.105,0.070
'9:05.117',0.070,0.075
'9:05.119',0.050,0.095
'9:05.122',0.025,0.085
'9:05.125',0.000,0.080
'9:05.128',-0.040,0.060
'9:05.131',-0.045,0.060
'9:05.133',-0.060,0.065
'9:05.136',-0.065,0.075
'9:05.139',-0.060,0.080
'9:05.142',-0.065,0.090
'9:05.144',-0.060,0.085
'9:05.147',-0.055,0.080
'9:05.150',-0.050,0.080
'9:05.153',-0.045,0.070
'9:05.156',-0.040,0.060
'9:05.158',-0.035,0.045
'9:05.161',-0.035,0.055
'9:05.164',-0.045,0.050
'9:05.167',-0.060,0.045
'9:05.169',-0.065,0.080
'9:05.172',-0.065,0.100
'9:05.175',-0.065,0.140
'9:05.178',-0.035,0.180
'9:05.181',0.010,0.230
'9:05.183',0.095,0.265
'9:05.186',0.225,0.265
'9:05.189',0.400,0.215
'9:05.192',0.605,0.125
'9:05.194',0.820,-0.010
'9:05.197',1.020,-0.180
'9:05.200',1.225,-0.395
'9:05.203',1.415,-0.665
'9:05.206',1.620,-0.975
'9:05.208',1.805,-1.295
'9:05.211',1.970,-1.620
'9:05.214',2.060,-1.850
'9:05.217',2.100,-1.995
'9:05.219',2.080,-2.015
'9:05.222',2.000,-1.945
'9:05.225',1.830,-1.820
'9:05.228',1.570,-1.680
'9:05.231',1.215,-1.485
'9:05.233',0.845,-1.285
'9:05.236',0.540,-1.060
'9:05.239',0.285,-0.845
'9:05.242',0.140,-0.655
'9:05.244',0.060,-0.515
'9:05.247',0.030,-0.415
'9:05.250',0.015,-0.330
'9:05.253',0.010,-0.275
'9:05.256',0.000,-0.200
'9:05.258',-0.045,-0.130
'9:05.261',-0.110,-0.075
'9:05.264',-0.155,-0.010
'9:05.267',-0.195,0.050
'9:05.269',-0.200,0.075
'9:05.272',-0.190,0.110
'9:05.275',-0.175,0.135
'9:05.278',-0.165,0.130
'9:05.281',-0.170,0.145
'9:05.283',-0.170,0.155
'9:05.286',-0.190,0.155
'9:05.289',-0.220,0.165
'9:05.292',-0.220,0.160
'9:05.294',-0.230,0.155
'9:05.297',-0.230,0.165
'9:05.300',-0.220,0.180
'9:05.303',-0.225,0.200
'9:05.306',-0.215,0.210
'9:05.308',-0.205,0.210
'9:05.311',-0.215,0.215
'9:05.314',-0.220,0.220
'9:05.317',-0.230,0.220
'9:05.319',-0.235,0.225
'9:05.322',-0.220,0.240
'9:05.325',-0.220,0.245
'9:05.328',-0.215,0.240
'9:05.331',-0.225,0.255
'9:05.333',-0.240,0.260
'9:05.336',-0.245,0.270
'9:05.339',-0.250,0.285
'9:05.342',-0.260,0.280
'9:05.344',-0.260,0.285
'9:05.347',-0.245,0.295
'9:05.350',-0.250,0.300
'9:05.353',-0.245,0.310
'9:05.356',-0.250,0.315
'9:05.358',-0.275,0.320
'9:05.361',-0.290,0.320
'9:05.364',-0.300,0.335
'9:05.367',-0.315,0.350
'9:05.369',-0.315,0.345
'9:05.372',-0.320,0.360
'9:05.375',-0.315,0.360
'9:05.378',-0.300,0.375
'9:05.381',-0.295,0.405
'9:05.383',-0.305,0.410
'9:05.386',-0.325,0.410
'9:05.389',-0.340,0.425
'9:05.392',-0.355,0.410
'9:05.394',-0.395,0.420
'9:05.397',-0.410,0.440
'9:05.400',-0.420,0.440
'9:05.403',-0.450,0.455
'9:05.406',-0.450,0.465
'9:05.408',-0.455,0.485
'9:05.411',-0.460,0.490
'9:05.414',-0.475,0.510
'9:05.417',-0.485,0.515
'9:05.419',-0.495,0.515
'9:05.422',-0.500,0.530
'9:05.425',-0.515,0.535
'9:05.428',-0.535,0.530
'9:05.431',-0.555,0.540
'9:05.433',-0.560,0.545
'9:05.436',-0.545,0.550
'9:05.439',-0.550,0.555
'9:05.442',-0.535,0.580
'9:05.444',-0.530,0.575
'9:05.447',-0.520,0.580
'9:05.450',-0.515,0.565
'9:05.453',-0.495,0.570
'9:05.456',-0.470,0.550
'9:05.458',-0.460,0.535
'9:05.461',-0.460,0.525
'9:05.464',-0.445,0.510
'9:05.467',-0.430,0.505
'9:05.469',-0.415,0.490
'9:05.472',-0.390,0.480
'9:05.475',-0.350,0.465
'9:05.478',-0.315,0.455
'9:05.481',-0.270,0.425
'9:05.483',-0.240,0.400
'9:05.486',-0.210,0.360
'9:05.489',-0.180,0.340
'9:05.492',-0.165,0.315
'9:05.494',-0.165,0.290
'9:05.497',-0.130,0.275
'9:05.500',-0.105,0.255
'9:05.503',-0.095,0.250
'9:05.506',-0.055,0.235
'9:05.508',-0.040,0.230
'9:05.511',-0.035,0.200
'9:05.514',-0.015,0.210
'9:05.517',-0.020,0.185
'9:05.519',-0.025,0.170
'9:05.522',-0.035,0.160
'9:05.525',-0.025,0.155
'9:05.528',-0.025,0.145
'9:05.531',-0.015,0.145
'9:05.533',-0.020,0.135
'9:05.536',-0.020,0.140
'9:05.539',-0.020,0.140
'9:05.542',-0.020,0.140
'9:05.544',-0.020,0.150
'9:05.547',-0.010,0.150
'9:05.550',0.000,0.155
'9:05.553',0.000,0.150
'9:05.556',-0.010,0.145
'9:05.558',-0.005,0.135
'9:05.561',-0.015,0.125
'9:05.564',-0.015,0.125
'9:05.567',-0.030,0.115
'9:05.569',-0.025,0.125
'9:05.572',-0.020,0.130
'9:05.575',-0.010,0.125
'9:05.578',-0.010,0.135
'9:05.581',0.005,0.145
'9:05.583',0.015,0.135
'9:05.586',0.015,0.130
'9:05.589',0.010,0.135
'9:05.592',-0.005,0.120
'9:05.594',-0.005,0.125
'9:05.597',-0.025,0.120
'9:05.600',-0.025,0.115
'9:05.603',-0.020,0.125
'9:05.606',0.000,0.135
'9:05.608',0.010,0.145
'9:05.611',0.000,0.150
'9:05.614',0.020,0.145
'9:05.617',0.015,0.155
'9:05.619',0.015,0.135
'9:05.622',0.020,0.120
'9:05.625',0.015,0.120
'9:05.628',0.005,0.140
'9:05.631',0.015,0.150
'9:05.633',0.020,0.170
'9:05.636',0.050,0.200
'9:05.639',0.070,0.235
'9:05.642',0.095,0.280
'9:05.644',0.110,0.290
'9:05.647',0.145,0.310
'9:05.650',0.160,0.315
'9:05.653',0.170,0.325
'9:05.656',0.170,0.305
'9:05.658',0.165,0.315
'9:05.661',0.205,0.305
'9:05.664',0.225,0.295
'9:05.667',0.260,0.270
'9:05.669',0.300,0.250
'9:05.672',0.320,0.225
'9:05.675',0.335,0.195
'9:05.678',0.335,0.190
'9:05.681',0.305,0.155
'9:05.683',0.280,0.145
'9:05.686',0.255,0.145
'9:05.689',0.255,0.130
'9:05.692',0.240,0.125
'9:05.694',0.255,0.110
'9:05.697',0.260,0.095
'9:05.700',0.265,0.080
'9:05.703',0.240,0.060
'9:05.706',0.230,0.060
'9:05.708',0.195,0.055
'9:05.711',0.175,0.065
'9:05.714',0.160,0.075
'9:05.717',0.115,0.075
'9:05.719',0.105,0.090
'9:05.722',0.075,0.105
'9:05.725',0.045,0.090
'9:05.728',0.030,0.085
'9:05.731',0.000,0.090
'9:05.733',-0.010,0.080
'9:05.736',-0.035,0.100
'9:05.739',-0.040,0.090
'9:05.742',-0.035,0.095
'9:05.744',-0.040,0.100
'9:05.747',-0.040,0.090
'9:05.750',-0.040,0.085
'9:05.753',-0.025,0.080
'9:05.756',-0.030,0.070
'9:05.758',-0.030,0.065
'9:05.761',-0.025,0.055
'9:05.764',-0.035,0.065
'9:05.767',-0.035,0.075
'9:05.769',-0.015,0.075
'9:05.772',-0.010,0.085
'9:05.775',-0.020,0.105
'9:05.778',-0.020,0.145
'9:05.781',-0.020,0.200
'9:05.783',0.030,0.235
'9:05.786',0.105,0.265
'9:05.789',0.240,0.270
'9:05.792',0.425,0.225
'9:05.794',0.635,0.130
'9:05.797',0.840,-0.045
'9:05.800',1.045,-0.235
'9:05.803',1.235,-0.490
'9:05.806',1.450,-0.790
'9:05.808',1.650,-1.140
'9:05.811',1.840,-1.475
'9:05.814',1.985,-1.770
'9:05.817',2.050,-1.955
'9:05.819',2.065,-2.030
'9:05.822',2.025,-1.975
'9:05.825',1.880,-1.875
'9:05.828',1.650,-1.735
'9:05.831',1.330,-1.540
'9:05.833',0.960,-1.325
'9:05.836',0.620,-1.090
'9:05.839',0.340,-0.865
'9:05.842',0.150,-0.670
'9:05.844',0.055,-0.515
'9:05.847',0.025,-0.405
'9:05.850',0.005,-0.335
'9:05.853',-0.005,-0.250
'9:05.856',-0.005,-0.185
'9:05.858',-0.055,-0.115
'9:05.861',-0.105,-0.045
'9:05.864',-0.160,0.025
'9:05.867',-0.200,0.080
'9:05.869',-0.225,0.110
'9:05.872',-0.235,0.130
'9:05.875',-0.215,0.150
'9:05.878',-0.190,0.170
'9:05.881',-0.185,0.170
'9:05.883',-0.175,0.165
'9:05.886',-0.185,0.175
'9:05.889',-0.205,0.185
'9:05.892',-0.225,0.185
'9:05.894',-0.235,0.185
'9:05.897',-0.250,0.180
'9:05.900',-0.240,0.195
'9:05.903',-0.240,0.200
'9:05.906',-0.230,0.215
'9:05.908',-0.245,0.235
'9:05.911',-0.240,0.255
'9:05.914',-0.240,0.265
'9:05.917',-0.240,0.265
'9:05.919',-0.240,0.270
'9:05.922',-0.240,0.270
'9:05.925',-0.240,0.255
'9:05.928',-0.260,0.250
'9:05.931',-0.265,0.270
'9:05.933',-0.270,0.270
'9:05.936',-0.265,0.285
'9:05.939',-0.280,0.300
'9:05.942',-0.275,0.320
'9:05.944',-0.270,0.340
'9:05.947',-0.265,0.345
'9:05.950',-0.260,0.340
'9:05.953',-0.265,0.340
'9:05.956',-0.275,0.340
'9:05.958',-0.290,0.340
'9:05.961',-0.305,0.345
'9:05.964',-0.310,0.360
'9:05.967',-0.320,0.370
'9:05.969',-0.330,0.400
'9:05.972',-0.350,0.420
'9:05.975',-0.335,0.425
'9:05.978',-0.345,0.440
'9:05.981',-0.380,0.455
'9:05.983',-0.380,0.440
'9:05.986',-0.400,0.460
'9:05.989',-0.410,0.465
'9:05.992',-0.425,0.485
'9:05.994',-0.435,0.465
'9:05.997',-0.445,0.490
'9:06.000',-0.455,0.510
'9:06.003',-0.460,0.515
'9:06.006',-0.470,0.535
'9:06.008',-0.490,0.540
'9:06.011',-0.500,0.550
'9:06.014',-0.500,0.560
'9:06.017',-0.520,0.560
'9:06.019',-0.530,0.575
'9:06.022',-0.550,0.575
'9:06.025',-0.555,0.575
'9:06.028',-0.570,0.570
'9:06.031',-0.560,0.580
'9:06.033',-0.565,0.575
'9:06.036',-0.560,0.595
'9:06.039',-0.545,0.590
'9:06.042',-0.535,0.595
'9:06.044',-0.505,0.595
'9:06.047',-0.490,0.595
'9:06.050',-0.475,0.590
'9:06.053',-0.465,0.575
'9:06.056',-0.440,0.565
'9:06.058',-0.440,0.535
'9:06.061',-0.415,0.515
'9:06.064',-0.395,0.490
'9:06.067',-0.365,0.470
'9:06.069',-0.325,0.460
'9:06.072',-0.290,0.445
'9:06.075',-0.260,0.435
'9:06.078',-0.230,0.410
'9:06.081',-0.210,0.395
'9:06.083',-0.180,0.365
'9:06.086',-0.155,0.335
'9:06.089',-0.140,0.300
'9:06.092',-0.125,0.290
'9:06.094',-0.120,0.260
'9:06.097',-0.110,0.225
'9:06.100',-0.100,0.205
'9:06.103',-0.080,0.210
'9:06.106',-0.060,0.210
'9:06.108',-0.040,0.205
'9:06.111',-0.015,0.210
'9:06.114',-0.005,0.200
'9:06.117',-0.015,0.185
'9:06.119',-0.010,0.170
'9:06.122',-0.015,0.165
'9:06.125',-0.015,0.155
'9:06.128',-0.015,0.145
'9:06.131',-0.010,0.155
'9:06.133',0.000,0.150
'9:06.136',0.015,0.140
'9:06.139',0.030,0.155
'9:06.142',0.060,0.165
'9:06.144',0.090,0.160
'9:06.147',0.125,0.175
'9:06.150',0.160,0.165
'9:06.153',0.200,0.180
'9:06.156',0.245,0.150
'9:06.158',0.295,0.145
'9:06.161',0.340,0.135
'9:06.164',0.405,0.125
'9:06.167',0.480,0.140
'9:06.169',0.560,0.120
'9:06.172',0.665,0.130
'9:06.175',0.775,0.125
'9:06.178',0.910,0.105
'9:06.181',1.010,0.115
'9:06.183',1.075,0.085
'9:06.186',1.065,0.045
'9:06.189',0.960,-0.015
'9:06.192',0.715,-0.080
'9:06.194',0.335,-0.130
'9:06.197',-0.115,-0.165
'9:06.200',-0.570,-0.180
'9:06.203',-0.975,-0.165
'9:06.206',-1.290,-0.140
'9:06.208',-1.525,-0.140
'9:06.211',-1.695,-0.145
'9:06.214',-1.835,-0.175
'9:06.217',-1.955,-0.215
'9:06.219',-2.065,-0.205
'9:06.222',-2.150,-0.165
'9:06.225',-2.215,-0.085
'9:06.228',-2.225,0.055
'9:06.231',-2.210,0.235
'9:06.233',-2.150,0.410
'9:06.236',-2.080,0.585
'9:06.239',-1.975,0.735
'9:06.242',-1.845,0.850
'9:06.244',-1.735,0.935
'9:06.247',-1.595,1.000
'9:06.250',-1.465,1.055
'9:06.253',-1.355,1.090
'9:06.256',-1.250,1.100
'9:06.258',-1.160,1.100
'9:06.261',-1.075,1.070
'9:06.264',-0.965,1.015
'9:06.267',-0.860,0.885
'9:06.269',-0.755,0.690
'9:06.272',-0.650,0.445
'9:06.275',-0.555,0.170
'9:06.278',-0.470,-0.070
'9:06.281',-0.400,-0.250
'9:06.283',-0.345,-0.350
'9:06.286',-0.270,-0.385
'9:06.289',-0.180,-0.365
'9:06.292',-0.080,-0.310
'9:06.294',0.050,-0.250
'9:06.297',0.170,-0.175
'9:06.300',0.290,-0.125
'9:06.303',0.380,-0.070
'9:06.306',0.435,-0.020
'9:06.308',0.465,0.010
'9:06.311',0.465,0.035
'9:06.314',0.450,0.045
'9:06.317',0.440,0.045
'9:06.319',0.425,0.040
'9:06.322',0.435,0.040
'9:06.325',0.440,0.035
'9:06.328',0.460,0.025
'9:06.331',0.470,0.030
'9:06.333',0.475,0.020
'9:06.336',0.480,0.020
'9:06.339',0.485,0.030
'9:06.342',0.510,0.035
'9:06.344',0.520,0.035
'9:06.347',0.535,0.045
'9:06.350',0.545,0.040
'9:06.353',0.565,0.035
'9:06.356',0.585,0.035
'9:06.358',0.595,0.020
'9:06.361',0.615,0.015
'9:06.364',0.625,0.005
'9:06.367',0.645,0.000
'9:06.369',0.650,0.015
'9:06.372',0.675,0.025
'9:06.375',0.685,0.025
'9:06.378',0.700,0.040
'9:06.381',0.720,0.025
'9:06.383',0.730,0.010
'9:06.386',0.745,0.010
'9:06.389',0.785,0.000
'9:06.392',0.810,0.000
'9:06.394',0.820,0.000
'9:06.397',0.830,0.000
'9:06.400',0.825,0.005
'9:06.403',0.825,0.025
'9:06.406',0.855,0.015
'9:06.408',0.885,0.005
'9:06.411',0.915,0.000
'9:06.414',0.950,0.000
'9:06.417',0.985,-0.005
'9:06.419',1.005,-0.005
'9:06.422',1.005,-0.005
'9:06.425',1.015,-0.005
'9:06.428',1.025,-0.025
'9:06.431',1.035,-0.030
'9:06.433',1.035,-0.030
'9:06.436',1.045,-0.030
'9:06.439',1.050,-0.030
'9:06.442',1.050,-0.030
'9:06.444',1.070,-0.020
'9:06.447',1.070,-0.030
'9:06.450',1.060,-0.030
'9:06.453',1.050,-0.040
'9:06.456',1.035,-0.050
'9:06.458',1.005,-0.055
'9:06.461',0.975,-0.065
'9:06.464',0.950,-0.080
'9:06.467',0.925,-0.070
'9:06.469',0.890,-0.070
'9:06.472',0.865,-0.055
'9:06.475',0.850,-0.055
'9:06.478',0.805,-0.035
'9:06.481',0.765,-0.030
'9:06.483',0.735,-0.030
'9:06.486',0.680,-0.030
'9:06.489',0.650,-0.030
'9:06.492',0.615,-0.040
'9:06.494',0.580,-0.035
'9:06.497',0.530,-0.020
'9:06.500',0.495,-0.005
'9:06.503',0.465,0.015
'9:06.506',0.435,0.045
'9:06.508',0.395,0.065
'9:06.511',0.355,0.085
'9:06.514',0.335,0.100
'9:06.517',0.310,0.095
'9:06.519',0.290,0.110
'9:06.522',0.260,0.110
'9:06.525',0.240,0.110
'9:06.528',0.215,0.120
'9:06.531',0.190,0.125
'9:06.533',0.165,0.155
'9:06.536',0.145,0.160
'9:06.539',0.135,0.185
'9:06.542',0.130,0.185
'9:06.544',0.125,0.210
'9:06.547',0.130,0.200
'9:06.550',0.110,0.190
'9:06.553',0.100,0.200
'9:06.556',0.095,0.185
'9:06.558',0.065,0.175
'9:06.561',0.065,0.165
'9:06.564',0.065,0.175
'9:06.567',0.060,0.170
'9:06.569',0.070,0.175
'9:06.572',0.065,0.175
'9:06.575',0.075,0.190
'9:06.578',0.070,0.195
'9:06.581',0.090,0.200
'9:06.583',0.070,0.210
'9:06.586',0.075,0.190
'9:06.589',0.055,0.190
'9:06.592',0.065,0.185
'9:06.594',0.055,0.180
'9:06.597',0.050,0.180
'9:06.600',0.060,0.175
'9:06.603',0.055,0.180
'9:06.606',0.060,0.180
'9:06.608',0.060,0.195
'9:06.611',0.050,0.190
'9:06.614',0.050,0.205
'9:06.617',0.060,0.185
'9:06.619',0.060,0.195
'9:06.622',0.055,0.175
'9:06.625',0.050,0.175
'9:06.628',0.050,0.160
'9:06.631',0.040,0.165
'9:06.633',0.045,0.170
'9:06.636',0.040,0.185
'9:06.639',0.045,0.185
'9:06.642',0.045,0.180
'9:06.644',0.035,0.185
'9:06.647',0.025,0.190
'9:06.650',0.030,0.185
'9:06.653',0.025,0.180
'9:06.656',0.030,0.175
'9:06.658',0.035,0.175
'9:06.661',0.030,0.175
'9:06.664',0.015,0.165
'9:06.667',0.005,0.160
'9:06.669',-0.005,0.170
'9:06.672',-0.015,0.170
'9:06.675',-0.010,0.175
'9:06.678',-0.010,0.180
'9:06.681',0.005,0.175
'9:06.683',0.000,0.175
'9:06.686',0.005,0.180
'9:06.689',0.005,0.170
'9:06.692',0.000,0.160
'9:06.694',-0.005,0.150
'9:06.697',-0.015,0.140
'9:06.700',-0.015,0.145
'9:06.703',-0.030,0.145
'9:06.706',-0.020,0.150
'9:06.708',-0.015,0.160
'9:06.711',-0.005,0.175
'9:06.714',-0.005,0.185
'9:06.717',-0.010,0.170
'9:06.719',-0.005,0.160
'9:06.722',-0.020,0.170
'9:06.725',-0.020,0.155
'9:06.728',-0.030,0.135
'9:06.731',-0.040,0.135
'9:06.733',-0.035,0.130
'9:06.736',-0.045,0.140
'9:06.739',-0.030,0.160
'9:06.742',-0.035,0.160
'9:06.744',-0.035,0.185
'9:06.747',-0.040,0.165
'9:06.750',-0.025,0.160
'9:06.753',-0.025,0.155
'9:06.756',-0.025,0.150
'9:06.758',-0.035,0.145
'9:06.761',-0.030,0.145
'9:06.764',-0.035,0.140
'9:06.767',-0.040,0.140
'9:06.769',-0.040,0.140
'9:06.772',-0.045,0.150
'9:06.775',-0.040,0.160
'9:06.778',-0.050,0.160
'9:06.781',-0.040,0.170
'9:06.783',-0.025,0.160
'9:06.786',-0.010,0.170
'9:06.789',-0.005,0.170
'9:06.792',0.010,0.160
'9:06.794',-0.010,0.145
'9:06.797',-0.010,0.150
'9:06.800',-0.020,0.165
'9:06.803',-0.020,0.150
'9:06.806',-0.005,0.170
'9:06.808',0.015,0.190
'9:06.811',0.035,0.210
'9:06.814',0.055,0.255
'9:06.817',0.090,0.290
'9:06.819',0.105,0.315
'9:06.822',0.115,0.345
'9:06.825',0.125,0.350
'9:06.828',0.110,0.350
'9:06.831',0.120,0.325
'9:06.833',0.120,0.320
'9:06.836',0.145,0.315
'9:06.839',0.175,0.320
'9:06.842',0.210,0.305
'9:06.844',0.260,0.290
'9:06.847',0.285,0.275
'9:06.850',0.310,0.230
'9:06.853',0.315,0.205
'9:06.856',0.295,0.180
'9:06.858',0.270,0.155
'9:06.861',0.245,0.150
'9:06.864',0.225,0.150
'9:06.867',0.215,0.150
'9:06.869',0.210,0.160
'9:06.872',0.225,0.155
'9:06.875',0.215,0.130
'9:06.878',0.215,0.115
'9:06.881',0.205,0.105
'9:06.883',0.180,0.080
'9:06.886',0.150,0.070
'9:06.889',0.120,0.065
'9:06.892',0.075,0.085
'9:06.894',0.030,0.105
'9:06.897',0.000,0.120
'9:06.900',-0.015,0.120
'9:06.903',-0.030,0.135
'9:06.906',-0.035,0.135
'9:06.908',-0.050,0.135
'9:06.911',-0.065,0.140
'9:06.914',-0.060,0.140
'9:06.917',-0.080,0.135
'9:06.919',-0.080,0.130
'9:06.922',-0.075,0.130
'9:06.925',-0.090,0.110
'9:06.928',-0.090,0.110
'9:06.931',-0.085,0.095
'9:06.933',-0.095,0.085
'9:06.936',-0.080,0.085
'9:06.939',-0.075,0.090
'9:06.942',-0.085,0.110
'9:06.944',-0.075,0.125
'9:06.947',-0.080,0.155
'9:06.950',-0.080,0.180
'9:06.953',-0.075,0.230
'9:06.956',-0.035,0.270
'9:06.958',0.030,0.280
'9:06.961',0.150,0.280
'9:06.964',0.325,0.250
'9:06.967',0.530,0.170
'9:06.969',0.745,0.055
'9:06.972',0.970,-0.095
'9:06.975',1.170,-0.280
'9:06.978',1.355,-0.475
'9:06.981',1.525,-0.760
'9:06.983',1.715,-1.090
'9:06.986',1.875,-1.415
'9:06.989',1.985,-1.720
'9:06.992',2.035,-1.915
'9:06.994',2.030,-2.005
'9:06.997',1.955,-1.985
'9:07.000',1.805,-1.885
'9:07.003',1.555,-1.755
'9:07.006',1.225,-1.570
'9:07.008',0.870,-1.375
'9:07.011',0.540,-1.135
'9:07.014',0.280,-0.900
'9:07.017',0.105,-0.690
'9:07.019',0.000,-0.535
'9:07.022',-0.030,-0.415
'9:07.025',-0.070,-0.325
'9:07.028',-0.110,-0.240
'9:07.031',-0.130,-0.170
'9:07.033',-0.180,-0.075
'9:07.036',-0.215,0.000
'9:07.039',-0.245,0.065
'9:07.042',-0.260,0.115
'9:07.044',-0.265,0.150
'9:07.047',-0.255,0.160
'9:07.050',-0.260,0.175
'9:07.053',-0.275,0.170
'9:07.056',-0.285,0.185
'9:07.058',-0.300,0.180
'9:07.061',-0.290,0.190
'9:07.064',-0.315,0.200
'9:07.067',-0.315,0.210
'9:07.069',-0.310,0.220
'9:07.072',-0.320,0.230
'9:07.075',-0.315,0.250
'9:07.078',-0.320,0.260
'9:07.081',-0.315,0.270
'9:07.083',-0.320,0.270
'9:07.086',-0.320,0.265
'9:07.089',-0.320,0.265
'9:07.092',-0.320,0.260
'9:07.094',-0.335,0.255
'9:07.097',-0.340,0.275
'9:07.100',-0.350,0.270
'9:07.103',-0.345,0.275
'9:07.106',-0.335,0.300
'9:07.108',-0.320,0.305
'9:07.111',-0.330,0.310
'9:07.114',-0.340,0.325
'9:07.117',-0.355,0.325
'9:07.119',-0.365,0.330
'9:07.122',-0.355,0.340
'9:07.125',-0.360,0.345
'9:07.128',-0.375,0.335
'9:07.131',-0.385,0.345
'9:07.133',-0.405,0.345
'9:07.136',-0.420,0.355
'9:07.139',-0.420,0.365
'9:07.142',-0.430,0.360
'9:07.144',-0.440,0.375
'9:07.147',-0.450,0.385
'9:07.150',-0.455,0.400
'9:07.153',-0.480,0.400
'9:07.156',-0.480,0.410
'9:07.158',-0.495,0.415
'9:07.161',-0.520,0.420
'9:07.164',-0.540,0.415
'9:07.167',-0.570,0.430
'9:07.169',-0.585,0.430
'9:07.172',-0.600,0.450
'9:07.175',-0.595,0.465
'9:07.178',-0.600,0.470
'9:07.181',-0.615,0.470
'9:07.183',-0.635,0.485
'9:07.186',-0.650,0.490
'9:07.189',-0.675,0.475
'9:07.192',-0.695,0.475
'9:07.194',-0.705,0.465
'9:07.197',-0.735,0.475
'9:07.200',-0.740,0.465
'9:07.203',-0.765,0.485
'9:07.206',-0.760,0.495
'9:07.208',-0.760,0.520
'9:07.211',-0.760,0.525
'9:07.214',-0.735,0.525
'9:07.217',-0.730,0.525
'9:07.219',-0.725,0.515
'9:07.222',-0.705,0.505
'9:07.225',-0.710,0.495
'9:07.228',-0.690,0.490
'9:07.231',-0.690,0.485
'9:07.233',-0.670,0.470
'9:07.236',-0.650,0.475
'9:07.239',-0.615,0.465
'9:07.242',-0.595,0.450
'9:07.244',-0.550,0.440
'9:07.247',-0.515,0.430
'9:07.250',-0.490,0.420
'9:07.253',-0.460,0.395
'9:07.256',-0.420,0.380
'9:07.258',-0.405,0.365
'9:07.261',-0.375,0.350
'9:07.264',-0.355,0.320
'9:07.267',-0.330,0.295
'9:07.269',-0.290,0.290
'9:07.272',-0.260,0.265
'9:07.275',-0.225,0.255
'9:07.278',-0.190,0.245
'9:07.281',-0.165,0.235
'9:07.283',-0.135,0.225
'9:07.286',-0.125,0.225
'9:07.289',-0.120,0.190
'9:07.292',-0.125,0.170
'9:07.294',-0.125,0.165
'9:07.297',-0.115,0.160
'9:07.300',-0.100,0.155
'9:07.303',-0.100,0.155
'9:07.306',-0.090,0.145
'9:07.308',-0.085,0.160
'9:07.311',-0.065,0.165
'9:07.314',-0.055,0.175
'9:07.317',-0.060,0.175
'9:07.319',-0.070,0.175
'9:07.322',-0.090,0.165
'9:07.325',-0.110,0.140
'9:07.328',-0.125,0.135
'9:07.331',-0.120,0.140
'9:07.333',-0.115,0.145
'9:07.336',-0.105,0.145
'9:07.339',-0.095,0.155
'9:07.342',-0.075,0.160
'9:07.344',-0.045,0.175
'9:07.347',-0.035,0.170
'9:07.350',-0.045,0.170
'9:07.353',-0.050,0.170
'9:07.356',-0.060,0.165
'9:07.358',-0.080,0.160
'9:07.361',-0.095,0.155
'9:07.364',-0.095,0.165
'9:07.367',-0.100,0.165
'9:07.369',-0.080,0.160
'9:07.372',-0.080,0.185
'9:07.375',-0.060,0.180
'9:07.378',-0.055,0.180
'9:07.381',-0.055,0.185
'9:07.383',-0.050,0.190
'9:07.386',-0.065,0.185
'9:07.389',-0.070,0.180
'9:07.392',-0.070,0.185
'9:07.394',-0.065,0.190
'9:07.397',-0.065,0.190
'9:07.400',-0.075,0.205
'9:07.403',-0.060,0.205
'9:07.406',-0.055,0.235
'9:07.408',-0.035,0.250
'9:07.411',-0.005,0.290
'9:07.414',0.015,0.310
'9:07.417',0.035,0.340
'9:07.419',0.055,0.350
'9:07.422',0.075,0.360
'9:07.425',0.080,0.350
'9:07.428',0.080,0.350
'9:07.431',0.095,0.345
'9:07.433',0.115,0.345
'9:07.436',0.145,0.330
'9:07.439',0.190,0.330
'9:07.442',0.235,0.290
'9:07.444',0.270,0.275
'9:07.447',0.275,0.250
'9:07.450',0.245,0.215
'9:07.453',0.235,0.190
'9:07.456',0.215,0.170
'9:07.458',0.185,0.170
'9:07.461',0.200,0.160
'9:07.464',0.215,0.155
'9:07.467',0.215,0.140
'9:07.469',0.200,0.115
'9:07.472',0.175,0.115
'9:07.475',0.150,0.095
'9:07.478',0.125,0.100
'9:07.481',0.100,0.105
'9:07.483',0.065,0.115
'9:07.486',0.025,0.135
'9:07.489',0.000,0.145
'9:07.492',-0.020,0.145
'9:07.494',-0.035,0.130
'9:07.497',-0.055,0.130
'9:07.500',-0.080,0.115
'9:07.503',-0.085,0.130
'9:07.506',-0.090,0.120
'9:07.508',-0.105,0.125
'9:07.511',-0.095,0.115
'9:07.514',-0.070,0.125
'9:07.517',-0.070,0.115
'9:07.519',-0.075,0.105
'9:07.522',-0.075,0.105
'9:07.525',-0.080,0.105
'9:07.528',-0.075,0.105
'9:07.531',-0.090,0.095
'9:07.533',-0.100,0.090
'9:07.536',-0.095,0.100
'9:07.539',-0.095,0.115
'9:07.542',-0.095,0.140
'9:07.544',-0.085,0.190
'9:07.547',-0.055,0.235
'9:07.550',0.010,0.285
'9:07.553',0.105,0.295
'9:07.556',0.270,0.280
'9:07.558',0.495,0.215
'9:07.561',0.730,0.090
'9:07.564',0.955,-0.080
'9:07.567',1.180,-0.275
'9:07.569',1.395,-0.535
'9:07.572',1.595,-0.850
'9:07.575',1.780,-1.210
'9:07.578',1.915,-1.535
'9:07.581',2.015,-1.795
'9:07.583',2.015,-1.925
'9:07.586',1.960,-1.935
'9:07.589',1.820,-1.875
'9:07.592',1.555,-1.745
'9:07.594',1.190,-1.565
'9:07.597',0.790,-1.360
'9:07.600',0.445,-1.120
'9:07.603',0.190,-0.900
'9:07.606',0.035,-0.675
'9:07.608',-0.025,-0.525
'9:07.611',-0.035,-0.405
'9:07.614',-0.015,-0.320
'9:07.617',-0.010,-0.240
'9:07.619',-0.035,-0.165
'9:07.622',-0.085,-0.085
'9:07.625',-0.145,-0.015
'9:07.628',-0.185,0.045
'9:07.631',-0.235,0.075
'9:07.633',-0.245,0.130
'9:07.636',-0.235,0.140
'9:07.639',-0.235,0.150
'9:07.642',-0.235,0.150
'9:07.644',-0.235,0.165
'9:07.647',-0.210,0.195
'9:07.650',-0.215,0.200
'9:07.653',-0.235,0.220
'9:07.656',-0.235,0.215
'9:07.658',-0.250,0.200
'9:07.661',-0.255,0.200
'9:07.664',-0.260,0.205
'9:07.667',-0.265,0.215
'9:07.669',-0.260,0.240
'9:07.672',-0.265,0.255
'9:07.675',-0.275,0.260
'9:07.678',-0.285,0.275
'9:07.681',-0.270,0.275
'9:07.683',-0.280,0.275
'9:07.686',-0.275,0.275
'9:07.689',-0.275,0.275
'9:07.692',-0.285,0.275
'9:07.694',-0.290,0.280
'9:07.697',-0.295,0.275
'9:07.700',-0.295,0.305
'9:07.703',-0.290,0.310
'9:07.706',-0.285,0.330
'9:07.708',-0.285,0.345
'9:07.711',-0.285,0.360
'9:07.714',-0.275,0.365
'9:07.717',-0.275,0.370
'9:07.719',-0.285,0.370
'9:07.722',-0.295,0.365
'9:07.725',-0.315,0.375
'9:07.728',-0.345,0.385
'9:07.731',-0.355,0.395
'9:07.733',-0.365,0.395
'9:07.736',-0.380,0.400
'9:07.739',-0.395,0.410
'9:07.742',-0.390,0.420
'9:07.744',-0.385,0.435
'9:07.747',-0.390,0.450
'9:07.750',-0.405,0.450
'9:07.753',-0.435,0.465
'9:07.756',-0.440,0.470
'9:07.758',-0.460,0.490
'9:07.761',-0.480,0.485
'9:07.764',-0.495,0.480
'9:07.767',-0.500,0.495
'9:07.769',-0.505,0.515
'9:07.772',-0.520,0.505
'9:07.775',-0.510,0.525
'9:07.778',-0.520,0.545
'9:07.781',-0.505,0.550
'9:07.783',-0.510,0.565
'9:07.786',-0.520,0.565
'9:07.789',-0.520,0.560
'9:07.792',-0.555,0.565
'9:07.794',-0.555,0.560
'9:07.797',-0.555,0.550
'9:07.800',-0.550,0.560
'9:07.803',-0.535,0.555
'9:07.806',-0.525,0.560
'9:07.808',-0.480,0.565
'9:07.811',-0.435,0.550
'9:07.814',-0.410,0.545
'9:07.817',-0.375,0.535
'9:07.819',-0.360,0.510
'9:07.822',-0.355,0.475
'9:07.825',-0.335,0.450
'9:07.828',-0.325,0.420
'9:07.831',-0.320,0.410
'9:07.833',-0.290,0.395
'9:07.836',-0.245,0.375
'9:07.839',-0.210,0.360
'9:07.842',-0.190,0.335
'9:07.844',-0.160,0.315
'9:07.847',-0.135,0.295
'9:07.850',-0.105,0.270
'9:07.853',-0.095,0.260
'9:07.856',-0.090,0.255
'9:07.858',-0.090,0.240
'9:07.861',-0.080,0.220
'9:07.864',-0.080,0.205
'9:07.867',-0.085,0.190
'9:07.869',-0.080,0.180
'9:07.872',-0.075,0.185
'9:07.875',-0.070,0.175
'9:07.878',-0.055,0.180
'9:07.881',-0.060,0.175
'9:07.883',-0.060,0.180
'9:07.886',-0.055,0.180
'9:07.889',-0.075,0.165
'9:07.892',-0.065,0.155
'9:07.894',-0.070,0.165
'9:07.897',-0.080,0.160
'9:07.900',-0.110,0.150
'9:07.903',-0.105,0.155
'9:07.906',-0.105,0.175
'9:07.908',-0.090,0.175
'9:07.911',-0.080,0.170
'9:07.914',-0.070,0.165
'9:07.917',-0.055,0.165
'9:07.919',-0.055,0.170
'9:07.922',-0.055,0.170
'9:07.925',-0.060,0.165
'9:07.928',-0.070,0.155
'9:07.931',-0.090,0.155
'9:07.933',-0.090,0.160
'9:07.936',-0.105,0.165
'9:07.939',-0.100,0.165
'9:07.942',-0.085,0.175
'9:07.944',-0.075,0.175
'9:07.947',-0.055,0.180
'9:07.950',-0.065,0.180
'9:07.953',-0.065,0.180
'9:07.956',-0.075,0.170
'9:07.958',-0.080,0.160
'9:07.961',-0.095,0.170
'9:07.964',-0.105,0.170
'9:07.967',-0.090,0.165
'9:07.969',-0.085,0.160
'9:07.972',-0.070,0.170
'9:07.975',-0.045,0.175
'9:07.978',-0.030,0.185
'9:07.981',-0.005,0.210
'9:07.983',0.005,0.210
'9:07.986',0.010,0.225
'9:07.989',0.030,0.245
'9:07.992',0.030,0.270
'9:07.994',0.035,0.290
'9:07.997',0.030,0.305
'9:08.000',0.030,0.310
'9:08.003',0.045,0.330
'9:08.006',0.050,0.325
'9:08.008',0.085,0.335
'9:08.011',0.115,0.350
'9:08.014',0.145,0.360
'9:08.017',0.175,0.350
'9:08.019',0.205,0.330
'9:08.022',0.230,0.305
'9:08.025',0.235,0.260
'9:08.028',0.230,0.215
'9:08.031',0.225,0.195
'9:08.033',0.210,0.180
'9:08.036',0.205,0.170
'9:08.039',0.200,0.175
'9:08.042',0.205,0.195
'9:08.044',0.230,0.190
'9:08.047',0.235,0.195
'9:08.050',0.230,0.185
'9:08.053',0.220,0.165
'9:08.056',0.205,0.140
'9:08.058',0.185,0.110
'9:08.061',0.140,0.080
'9:08.064',0.110,0.075
'9:08.067',0.090,0.080
'9:08.069',0.075,0.100
'9:08.072',0.045,0.125
'9:08.075',0.030,0.140
'9:08.078',0.020,0.160
'9:08.081',0.005,0.170
'9:08.083',-0.005,0.155
'9:08.086',-0.030,0.145
'9:08.089',-0.045,0.130
'9:08.092',-0.065,0.130
'9:08.094',-0.085,0.115
'9:08.097',-0.090,0.105
'9:08.100',-0.095,0.120
'9:08.103',-0.085,0.120
'9:08.106',-0.080,0.130
'9:08.108',-0.070,0.125
'9:08.111',-0.075,0.130
'9:08.114',-0.070,0.115
'9:08.117',-0.070,0.115
'9:08.119',-0.065,0.105
'9:08.122',-0.065,0.090
'9:08.125',-0.065,0.095
'9:08.128',-0.070,0.095
'9:08.131',-0.075,0.115
'9:08.133',-0.100,0.150
'9:08.136',-0.085,0.205
'9:08.139',-0.050,0.255
'9:08.142',0.035,0.305
'9:08.144',0.160,0.335
'9:08.147',0.340,0.315
'9:08.150',0.545,0.245
'9:08.153',0.745,0.130
'9:08.156',0.930,-0.030
'9:08.158',1.110,-0.230
'9:08.161',1.295,-0.465
'9:08.164',1.475,-0.760
'9:08.167',1.660,-1.080
'9:08.169',1.830,-1.405
'9:08.172',1.950,-1.680
'9:08.175',2.010,-1.845
'9:08.178',2.015,-1.900
'9:08.181',1.955,-1.850
'9:08.183',1.795,-1.745
'9:08.186',1.525,-1.615
'9:08.189',1.155,-1.420
'9:08.192',0.750,-1.215
'9:08.194',0.415,-1.000
'9:08.197',0.170,-0.795
'9:08.200',0.015,-0.605
'9:08.203',-0.040,-0.470
'9:08.206',-0.040,-0.365
'9:08.208',-0.020,-0.270
'9:08.211',-0.010,-0.205
'9:08.214',-0.040,-0.125
'9:08.217',-0.090,-0.055
'9:08.219',-0.155,0.015
'9:08.222',-0.205,0.070
'9:08.225',-0.235,0.110
'9:08.228',-0.250,0.135
'9:08.231',-0.250,0.145
'9:08.233',-0.250,0.155
'9:08.236',-0.250,0.160
'9:08.239',-0.270,0.170
'9:08.242',-0.280,0.185
'9:08.244',-0.280,0.200
'9:08.247',-0.260,0.220
'9:08.250',-0.250,0.235
'9:08.253',-0.250,0.255
'9:08.256',-0.245,0.255
'9:08.258',-0.265,0.260
'9:08.261',-0.265,0.245
'9:08.264',-0.280,0.250
'9:08.267',-0.295,0.240
'9:08.269',-0.300,0.245
'9:08.272',-0.285,0.250
'9:08.275',-0.285,0.275
'9:08.278',-0.285,0.270
'9:08.281',-0.285,0.285
'9:08.283',-0.295,0.285
'9:08.286',-0.315,0.290
'9:08.289',-0.310,0.270
'9:08.292',-0.310,0.275
'9:08.294',-0.320,0.275
'9:08.297',-0.330,0.285
'9:08.300',-0.335,0.305
'9:08.303',-0.340,0.335
'9:08.306',-0.345,0.345
'9:08.308',-0.345,0.365
'9:08.311',-0.345,0.365
'9:08.314',-0.345,0.370
'9:08.317',-0.345,0.365
'9:08.319',-0.350,0.375
'9:08.322',-0.360,0.385
'9:08.325',-0.355,0.395
'9:08.328',-0.370,0.400
'9:08.331',-0.390,0.395
'9:08.333',-0.410,0.410
'9:08.336',-0.425,0.400
'9:08.339',-0.430,0.420
'9:08.342',-0.425,0.415
'9:08.344',-0.420,0.425
'9:08.347',-0.430,0.435
'9:08.350',-0.445,0.430
'9:08.353',-0.475,0.465
'9:08.356',-0.510,0.490
'9:08.358',-0.540,0.500
'9:08.361',-0.565,0.500
'9:08.364',-0.575,0.495
'9:08.367',-0.580,0.485
'9:08.369',-0.565,0.480
'9:08.372',-0.570,0.495
'9:08.375',-0.565,0.505
'9:08.378',-0.560,0.535
'9:08.381',-0.575,0.535
'9:08.383',-0.590,0.540
'9:08.386',-0.595,0.560
'9:08.389',-0.610,0.560
'9:08.392',-0.630,0.560
'9:08.394',-0.645,0.545
'9:08.397',-0.640,0.560
'9:08.400',-0.645,0.540
'9:08.403',-0.620,0.540
'9:08.406',-0.595,0.530
'9:08.408',-0.565,0.515
'9:08.411',-0.540,0.500
'9:08.414',-0.510,0.505
'9:08.417',-0.470,0.495
'9:08.419',-0.450,0.475
'9:08.422',-0.415,0.470
'9:08.425',-0.400,0.445
'9:08.428',-0.380,0.445
'9:08.431',-0.370,0.415
'9:08.433',-0.345,0.405
'9:08.436',-0.330,0.390
'9:08.439',-0.310,0.395
'9:08.442',-0.295,0.385
'9:08.444',-0.265,0.375
'9:08.447',-0.230,0.360
'9:08.450',-0.215,0.310
'9:08.453',-0.200,0.290
'9:08.456',-0.175,0.270
'9:08.458',-0.160,0.260
'9:08.461',-0.150,0.225
'9:08.464',-0.145,0.215
'9:08.467',-0.135,0.220
'9:08.469',-0.125,0.200
'9:08.472',-0.110,0.210
'9:08.475',-0.105,0.220
'9:08.478',-0.085,0.205
'9:08.481',-0.090,0.210
'9:08.483',-0.095,0.200
'9:08.486',-0.100,0.185
'9:08.489',-0.100,0.175
'9:08.492',-0.100,0.180
'9:08.494',-0.110,0.175
'9:08.497',-0.120,0.180
'9:08.500',-0.120,0.190
'9:08.503',-0.110,0.195
'9:08.506',-0.115,0.195
'9:08.508',-0.105,0.205
'9:08.511',-0.095,0.195
'9:08.514',-0.100,0.190
'9:08.517',-0.095,0.190
'9:08.519',-0.095,0.200
'9:08.522',-0.105,0.170
'9:08.525',-0.120,0.170
'9:08.528',-0.140,0.150
'9:08.531',-0.120,0.150
'9:08.533',-0.120,0.145
'9:08.536',-0.095,0.160
'9:08.539',-0.075,0.175
'9:08.542',-0.065,0.175
'9:08.544',-0.065,0.190
'9:08.547',-0.075,0.200
'9:08.550',-0.085,0.205
'9:08.553',-0.105,0.215
'9:08.556',-0.125,0.185
'9:08.558',-0.135,0.190
'9:08.561',-0.130,0.190
'9:08.564',-0.125,0.190
'9:08.567',-0.130,0.185
'9:08.569',-0.135,0.180
'9:08.572',-0.115,0.185
'9:08.575',-0.100,0.190
'9:08.578',-0.090,0.195
'9:08.581',-0.095,0.215
'9:08.583',-0.085,0.205
'9:08.586',-0.080,0.230
'9:08.589',-0.080,0.235
'9:08.592',-0.065,0.220
'9:08.594',-0.040,0.235
'9:08.597',-0.020,0.250
'9:08.600',-0.015,0.270
'9:08.603',0.000,0.305
'9:08.606',0.010,0.320
'9:08.608',0.020,0.340
'9:08.611',0.040,0.330
'9:08.614',0.065,0.340
'9:08.617',0.100,0.330
'9:08.619',0.115,0.330
'9:08.622',0.130,0.325
'9:08.625',0.150,0.330
'9:08.628',0.170,0.295
'9:08.631',0.180,0.265
'9:08.633',0.185,0.225
'9:08.636',0.190,0.195
'9:08.639',0.175,0.195
'9:08.642',0.160,0.180
'9:08.644',0.155,0.195
'9:08.647',0.160,0.200
'9:08.650',0.170,0.190
'9:08.653',0.180,0.190
'9:08.656',0.185,0.175
'9:08.658',0.170,0.135
'9:08.661',0.130,0.110
'9:08.664',0.105,0.085
'9:08.667',0.070,0.075
'9:08.669',0.035,0.085
'9:08.672',0.015,0.100
'9:08.675',-0.010,0.135
'9:08.678',-0.015,0.155
'9:08.681',-0.035,0.165
'9:08.683',-0.055,0.165
'9:08.686',-0.075,0.165
'9:08.689',-0.085,0.140
'9:08.692',-0.095,0.135
'9:08.694',-0.110,0.110
'9:08.697',-0.120,0.100
'9:08.700',-0.110,0.090
'9:08.703',-0.115,0.095
'9:08.706',-0.115,0.110
'9:08.708',-0.105,0.110
'9:08.711',-0.100,0.130
'9:08.714',-0.100,0.125
'9:08.717',-0.095,0.120
'9:08.719',-0.085,0.125
'9:08.722',-0.090,0.125
'9:08.725',-0.095,0.105
'9:08.728',-0.090,0.110
'9:08.731',-0.110,0.115
'9:08.733',-0.120,0.150
'9:08.736',-0.125,0.190
'9:08.739',-0.105,0.245
'9:08.742',-0.060,0.290
'9:08.744',0.045,0.320
'9:08.747',0.220,0.315
'9:08.750',0.415,0.265
'9:08.753',0.620,0.175
'9:08.756',0.830,0.045
'9:08.758',1.015,-0.135
'9:08.761',1.185,-0.340
'9:08.764',1.350,-0.590
'9:08.767',1.505,-0.890
'9:08.769',1.665,-1.210
'9:08.772',1.790,-1.480
'9:08.775',1.860,-1.675
'9:08.778',1.860,-1.745
'9:08.781',1.790,-1.720
'9:08.783',1.620,-1.640
'9:08.786',1.350,-1.515
'9:08.789',1.030,-1.355
'9:08.792',0.685,-1.190
'9:08.794',0.385,-1.030
'9:08.797',0.180,-0.855
'9:08.800',0.050,-0.685
'9:08.803',0.000,-0.560
'9:08.806',-0.010,-0.445
'9:08.808',-0.005,-0.345
'9:08.811',-0.015,-0.275
'9:08.814',-0.025,-0.190
'9:08.817',-0.065,-0.130
'9:08.819',-0.125,-0.065
'9:08.822',-0.185,-0.015
'9:08.825',-0.225,0.035
'9:08.828',-0.245,0.060
'9:08.831',-0.260,0.110
'9:08.833',-0.255,0.115
'9:08.836',-0.255,0.140
'9:08.839',-0.235,0.165
'9:08.842',-0.235,0.190
'9:08.844',-0.235,0.190
'9:08.847',-0.240,0.210
'9:08.850',-0.230,0.210
'9:08.853',-0.240,0.205
'9:08.856',-0.240,0.200
'9:08.858',-0.250,0.205
'9:08.861',-0.265,0.200
'9:08.864',-0.260,0.200
'9:08.867',-0.260,0.215
'9:08.869',-0.255,0.215
'9:08.872',-0.250,0.230
'9:08.875',-0.240,0.240
'9:08.878',-0.250,0.250
'9:08.881',-0.260,0.260
'9:08.883',-0.275,0.260
'9:08.886',-0.290,0.265
'9:08.889',-0.300,0.260
'9:08.892',-0.305,0.260
'9:08.894',-0.300,0.255
'9:08.897',-0.300,0.270
'9:08.900',-0.305,0.270
'9:08.903',-0.300,0.280
'9:08.906',-0.280,0.300
'9:08.908',-0.275,0.315
'9:08.911',-0.280,0.330
'9:08.914',-0.290,0.335
'9:08.917',-0.285,0.335
'9:08.919',-0.295,0.335
'9:08.922',-0.310,0.330
'9:08.925',-0.325,0.330
'9:08.928',-0.340,0.355
'9:08.931',-0.350,0.350
'9:08.933',-0.355,0.370
'9:08.936',-0.375,0.370
'9:08.939',-0.370,0.390
'9:08.942',-0.365,0.400
'9:08.944',-0.370,0.415
'9:08.947',-0.380,0.420
'9:08.950',-0.380,0.425
'9:08.953',-0.400,0.440
'9:08.956',-0.415,0.445
'9:08.958',-0.425,0.455
'9:08.961',-0.435,0.460
'9:08.964',-0.465,0.450
'9:08.967',-0.480,0.460
'9:08.969',-0.490,0.470
'9:08.972',-0.495,0.475
'9:08.975',-0.505,0.500
'9:08.978',-0.505,0.510
'9:08.981',-0.515,0.520
'9:08.983',-0.520,0.520
'9:08.986',-0.530,0.535
'9:08.989',-0.535,0.520
'9:08.992',-0.525,0.515
'9:08.994',-0.550,0.515
'9:08.997',-0.555,0.515
'9:09.000',-0.560,0.530
'9:09.003',-0.560,0.535
'9:09.006',-0.565,0.540
'9:09.008',-0.545,0.545
'9:09.011',-0.520,0.545
'9:09.014',-0.495,0.540
'9:09.017',-0.480,0.540
'9:09.019',-0.480,0.515
'9:09.022',-0.455,0.490
'9:09.025',-0.440,0.465
'9:09.028',-0.425,0.450
'9:09.031',-0.390,0.440
'9:09.033',-0.365,0.420
'9:09.036',-0.330,0.405
'9:09.039',-0.310,0.395
'9:09.042',-0.290,0.370
'9:09.044',-0.260,0.350
'9:09.047',-0.240,0.345
'9:09.050',-0.215,0.315
'9:09.053',-0.195,0.300
'9:09.056',-0.165,0.285
'9:09.058',-0.145,0.255
'9:09.061',-0.135,0.245
'9:09.064',-0.125,0.215
'9:09.067',-0.110,0.200
'9:09.069',-0.110,0.185
'9:09.072',-0.095,0.175
'9:09.075',-0.090,0.170
'9:09.078',-0.075,0.165
'9:09.081',-0.065,0.165
'9:09.083',-0.060,0.175
'9:09.086',-0.060,0.175
'9:09.089',-0.080,0.165
'9:09.092',-0.080,0.150
'9:09.094',-0.095,0.135
'9:09.097',-0.100,0.120
'9:09.100',-0.100,0.120
'9:09.103',-0.095,0.120
'9:09.106',-0.080,0.120
'9:09.108',-0.070,0.130
'9:09.111',-0.060,0.140
'9:09.114',-0.055,0.150
'9:09.117',-0.045,0.155
'9:09.119',-0.040,0.140
'9:09.122',-0.055,0.130
'9:09.125',-0.065,0.130
'9:09.128',-0.070,0.120
'9:09.131',-0.060,0.115
'9:09.133',-0.070,0.110
'9:09.136',-0.070,0.130
'9:09.139',-0.070,0.130
'9:09.142',-0.070,0.150
'9:09.144',-0.055,0.150
'9:09.147',-0.045,0.155
'9:09.150',-0.045,0.140
'9:09.153',-0.035,0.135
'9:09.156',-0.040,0.130
'9:09.158',-0.045,0.120
'9:09.161',-0.055,0.130
'9:09.164',-0.075,0.105
'9:09.167',-0.075,0.125
'9:09.169',-0.075,0.120
'9:09.172',-0.065,0.130
'9:09.175',-0.060,0.130
'9:09.178',-0.035,0.140
'9:09.181',-0.020,0.145
'9:09.183',-0.015,0.150
'9:09.186',-0.020,0.170
'9:09.189',-0.020,0.180
'9:09.192',-0.015,0.190
'9:09.194',-0.010,0.205
'9:09.197',0.000,0.225
'9:09.200',0.035,0.240
'9:09.203',0.055,0.255
'9:09.206',0.070,0.280
'9:09.208',0.095,0.280
'9:09.211',0.105,0.275
'9:09.214',0.110,0.290
'9:09.217',0.145,0.290
'9:09.219',0.170,0.270
'9:09.222',0.205,0.255
'9:09.225',0.230,0.245
'9:09.228',0.240,0.205
'9:09.231',0.245,0.165
'9:09.233',0.235,0.155
'9:09.236',0.220,0.135
'9:09.239',0.200,0.115
'9:09.242',0.200,0.140
'9:09.244',0.210,0.130
'9:09.247',0.235,0.145
'9:09.250',0.245,0.145
'9:09.253',0.240,0.125
'9:09.256',0.240,0.085
'9:09.258',0.210,0.070
'9:09.261',0.180,0.030
'9:09.264',0.140,0.015
'9:09.267',0.080,0.040
'9:09.269',0.055,0.040
'9:09.272',0.020,0.065
'9:09.275',0.025,0.095
'9:09.278',0.005,0.100
'9:09.281',0.010,0.100
'9:09.283',0.020,0.100
'9:09.286',0.010,0.095
'9:09.289',-0.015,0.085
'9:09.292',-0.045,0.075
'9:09.294',-0.075,0.070
'9:09.297',-0.080,0.065
'9:09.300',-0.090,0.070
'9:09.303',-0.075,0.070
'9:09.306',-0.080,0.075
'9:09.308',-0.080,0.075
'9:09.311',-0.065,0.080
'9:09.314',-0.065,0.075
'9:09.317',-0.050,0.070
'9:09.319',-0.055,0.075
'9:09.322',-0.055,0.085
'9:09.325',-0.045,0.095
'9:09.328',-0.055,0.115
'9:09.331',-0.065,0.125
'9:09.333',-0.045,0.165
'9:09.336',-0.030,0.210
'9:09.339',0.035,0.255
'9:09.342',0.150,0.285
'9:09.344',0.305,0.275
'9:09.347',0.495,0.205
'9:09.350',0.700,0.110
'9:09.353',0.900,-0.040
'9:09.356',1.080,-0.235
'9:09.358',1.245,-0.480
'9:09.361',1.425,-0.770
'9:09.364',1.590,-1.090
'9:09.367',1.745,-1.415
'9:09.369',1.865,-1.675
'9:09.372',1.920,-1.835
'9:09.375',1.925,-1.880
'9:09.378',1.850,-1.825
'9:09.381',1.730,-1.720
'9:09.383',1.520,-1.585
'9:09.386',1.215,-1.400
'9:09.389',0.885,-1.235
'9:09.392',0.560,-1.065
'9:09.394',0.315,-0.880
'9:09.397',0.150,-0.715
'9:09.400',0.070,-0.580
'9:09.403',0.035,-0.465
'9:09.406',0.025,-0.370
'9:09.408',0.025,-0.290
'9:09.411',-0.005,-0.200
'9:09.414',-0.060,-0.135
'9:09.417',-0.125,-0.075
'9:09.419',-0.180,0.020
'9:09.422',-0.215,0.055
'9:09.425',-0.215,0.095
'9:09.428',-0.215,0.110
'9:09.431',-0.210,0.125
'9:09.433',-0.210,0.125
'9:09.436',-0.220,0.130
'9:09.439',-0.215,0.130
'9:09.442',-0.210,0.155
'9:09.444',-0.220,0.165
'9:09.447',-0.225,0.185
'9:09.450',-0.230,0.185
'9:09.453',-0.235,0.205
'9:09.456',-0.240,0.215
'9:09.458',-0.250,0.205
'9:09.461',-0.250,0.205
'9:09.464',-0.250,0.220
'9:09.467',-0.250,0.210
'9:09.469',-0.260,0.220
'9:09.472',-0.250,0.220
'9:09.475',-0.245,0.240
'9:09.478',-0.250,0.260
'9:09.481',-0.240,0.275
'9:09.483',-0.250,0.260
'9:09.486',-0.260,0.270
'9:09.489',-0.260,0.275
'9:09.492',-0.280,0.275
'9:09.494',-0.280,0.275
'9:09.497',-0.290,0.280
'9:09.500',-0.280,0.285
'9:09.503',-0.290,0.300
'9:09.506',-0.285,0.310
'9:09.508',-0.290,0.320
'9:09.511',-0.290,0.340
'9:09.514',-0.305,0.345
'9:09.517',-0.300,0.345
'9:09.519',-0.310,0.350
'9:09.522',-0.315,0.365
'9:09.525',-0.320,0.360
'9:09.528',-0.325,0.370
'9:09.531',-0.350,0.385
'9:09.533',-0.370,0.405
'9:09.536',-0.390,0.425
'9:09.539',-0.420,0.425
'9:09.542',-0.415,0.445
'9:09.544',-0.415,0.455
'9:09.547',-0.410,0.475
'9:09.550',-0.415,0.480
'9:09.553',-0.435,0.485
'9:09.556',-0.460,0.500
'9:09.558',-0.480,0.500
'9:09.561',-0.490,0.505
'9:09.564',-0.520,0.505
'9:09.567',-0.520,0.510
'9:09.569',-0.530,0.515
'9:09.572',-0.530,0.520
'9:09.575',-0.535,0.545
'9:09.578',-0.555,0.550
'9:09.581',-0.560,0.565
'9:09.583',-0.555,0.565
'9:09.586',-0.535,0.560
'9:09.589',-0.530,0.565
'9:09.592',-0.535,0.555
'9:09.594',-0.540,0.555
'9:09.597',-0.525,0.545
'9:09.600',-0.515,0.535
'9:09.603',-0.505,0.525
'9:09.606',-0.485,0.520
'9:09.608',-0.455,0.500
'9:09.611',-0.430,0.500
'9:09.614',-0.380,0.485
'9:09.617',-0.355,0.460
'9:09.619',-0.335,0.440
'9:09.622',-0.300,0.410
'9:09.625',-0.285,0.385
'9:09.628',-0.265,0.355
'9:09.631',-0.235,0.325
'9:09.633',-0.220,0.310
'9:09.636',-0.195,0.290
'9:09.639',-0.180,0.285
'9:09.642',-0.145,0.265
'9:09.644',-0.110,0.260
'9:09.647',-0.080,0.250
'9:09.650',-0.065,0.235
'9:09.653',-0.055,0.220
'9:09.656',-0.050,0.195
'9:09.658',-0.040,0.170
'9:09.661',-0.035,0.165
'9:09.664',-0.035,0.135
'9:09.667',-0.030,0.135
'9:09.669',-0.025,0.145
'9:09.672',-0.020,0.140
'9:09.675',-0.030,0.135
'9:09.678',-0.020,0.145
'9:09.681',-0.010,0.145
'9:09.683',0.005,0.135
'9:09.686',0.020,0.140
'9:09.689',0.030,0.140
'9:09.692',0.045,0.130
'9:09.694',0.055,0.120
'9:09.697',0.045,0.115
'9:09.700',0.050,0.115
'9:09.703',0.070,0.105
'9:09.706',0.105,0.110
'9:09.708',0.145,0.120
'9:09.711',0.185,0.135
'9:09.714',0.255,0.135
'9:09.717',0.310,0.130
'9:09.719',0.370,0.125
'9:09.722',0.450,0.115
'9:09.725',0.515,0.100
'9:09.728',0.595,0.090
'9:09.731',0.665,0.095
'9:09.733',0.790,0.080
'9:09.736',0.910,0.080
'9:09.739',1.005,0.070
'9:09.742',1.055,0.055
'9:09.744',1.040,0.030
'9:09.747',0.940,-0.005
'9:09.750',0.690,-0.045
'9:09.753',0.360,-0.070
'9:09.756',-0.035,-0.070
'9:09.758',-0.420,-0.060
'9:09.761',-0.775,-0.040
'9:09.764',-1.035,-0.020
'9:09.767',-1.240,-0.030
'9:09.769',-1.410,-0.025
'9:09.772',-1.565,-0.030
'9:09.775',-1.690,-0.025
'9:09.778',-1.815,0.020
'9:09.781',-1.905,0.090
'9:09.783',-1.955,0.180
'9:09.786',-1.985,0.310
'9:09.789',-1.985,0.425
'9:09.792',-1.960,0.555
'9:09.794',-1.910,0.660
'9:09.797',-1.855,0.750
'9:09.800',-1.770,0.830
'9:09.803',-1.655,0.895
'9:09.806',-1.525,0.955
'9:09.808',-1.395,0.995
'9:09.811',-1.285,1.035
'9:09.814',-1.190,1.040
'9:09.817',-1.110,1.050
'9:09.819',-1.055,1.050
'9:09.822',-0.980,1.040
'9:09.825',-0.920,0.995
'9:09.828',-0.825,0.900
'9:09.831',-0.710,0.760
'9:09.833',-0.590,0.550
'9:09.836',-0.470,0.320
'9:09.839',-0.380,0.070
'9:09.842',-0.320,-0.115
'9:09.844',-0.275,-0.245
'9:09.847',-0.235,-0.310
'9:09.850',-0.185,-0.320
'9:09.853',-0.130,-0.285
'9:09.856',-0.015,-0.230
'9:09.858',0.095,-0.175
'9:09.861',0.195,-0.135
'9:09.864',0.295,-0.090
'9:09.867',0.335,-0.040
'9:09.869',0.385,-0.015
'9:09.872',0.380,0.000
'9:09.875',0.385,-0.010
'9:09.878',0.370,0.005
'9:09.881',0.345,-0.010
'9:09.883',0.365,-0.020
'9:09.886',0.375,-0.020
'9:09.889',0.400,-0.045
'9:09.892',0.420,-0.055
'9:09.894',0.415,-0.060
'9:09.897',0.420,-0.060
'9:09.900',0.430,-0.065
'9:09.903',0.450,-0.055
'9:09.906',0.465,-0.040
'9:09.908',0.480,-0.030
'9:09.911',0.505,-0.020
'9:09.914',0.520,-0.025
'9:09.917',0.535,-0.045
'9:09.919',0.535,-0.060
'9:09.922',0.545,-0.070
'9:09.925',0.555,-0.070
'9:09.928',0.565,-0.075
'9:09.931',0.575,-0.075
'9:09.933',0.595,-0.075
'9:09.936',0.605,-0.080
'9:09.939',0.635,-0.075
'9:09.942',0.650,-0.070
'9:09.944',0.660,-0.080
'9:09.947',0.695,-0.075
'9:09.950',0.720,-0.085
'9:09.953',0.730,-0.085
'9:09.956',0.750,-0.095
'9:09.958',0.765,-0.100
'9:09.961',0.775,-0.100
'9:09.964',0.795,-0.120
'9:09.967',0.800,-0.105
'9:09.969',0.825,-0.120
'9:09.972',0.845,-0.110
'9:09.975',0.865,-0.115
'9:09.978',0.905,-0.105
'9:09.981',0.930,-0.100
'9:09.983',0.945,-0.100
'9:09.986',0.950,-0.110
'9:09.989',0.955,-0.115
'9:09.992',0.965,-0.125
'9:09.994',0.965,-0.130
'9:09.997',0.985,-0.150
'9:10.000',0.985,-0.165
'9:10.003',0.985,-0.165
'9:10.006',0.990,-0.160
'9:10.008',0.985,-0.155
'9:10.011',0.960,-0.135
'9:10.014',0.945,-0.145
'9:10.017',0.920,-0.145
'9:10.019',0.890,-0.140
'9:10.022',0.885,-0.145
'9:10.025',0.855,-0.150
'9:10.028',0.830,-0.150
'9:10.031',0.790,-0.145
'9:10.033',0.755,-0.150
'9:10.036',0.725,-0.135
'9:10.039',0.675,-0.125
'9:10.042',0.655,-0.100
'9:10.044',0.625,-0.090
'9:10.047',0.600,-0.085
'9:10.050',0.580,-0.090
'9:10.053',0.545,-0.065
'9:10.056',0.520,-0.080
'9:10.058',0.480,-0.045
'9:10.061',0.440,-0.045
'9:10.064',0.405,-0.020
'9:10.067',0.375,-0.005
'9:10.069',0.345,0.020
'9:10.072',0.320,0.025
'9:10.075',0.315,0.055
'9:10.078',0.280,0.070
'9:10.081',0.275,0.070
'9:10.083',0.265,0.085
'9:10.086',0.245,0.095
'9:10.089',0.220,0.105
'9:10.092',0.205,0.110
'9:10.094',0.180,0.115
'9:10.097',0.160,0.110
'9:10.100',0.145,0.115
'9:10.103',0.135,0.110
'9:10.106',0.105,0.115
'9:10.108',0.115,0.115
'9:10.111',0.115,0.125
'9:10.114',0.145,0.135
'9:10.117',0.150,0.130
'9:10.119',0.135,0.130
'9:10.122',0.130,0.135
'9:10.125',0.110,0.120
'9:10.128',0.115,0.115
'9:10.131',0.110,0.105
'9:10.133',0.100,0.110
'9:10.136',0.110,0.115
'9:10.139',0.105,0.120
'9:10.142',0.120,0.120
'9:10.144',0.120,0.140
'9:10.147',0.130,0.135
'9:10.150',0.140,0.140
'9:10.153',0.140,0.125
'9:10.156',0.135,0.110
'9:10.158',0.125,0.105
'9:10.161',0.125,0.090
'9:10.164',0.105,0.090
'9:10.167',0.110,0.100
'9:10.169',0.105,0.105
'9:10.172',0.100,0.125
'9:10.175',0.110,0.130
'9:10.178',0.115,0.120
'9:10.181',0.115,0.130
'9:10.183',0.120,0.130
'9:10.186',0.115,0.110
'9:10.189',0.110,0.115
'9:10.192',0.100,0.110
'9:10.194',0.090,0.105
'9:10.197',0.080,0.090
'9:10.200',0.075,0.095
'9:10.203',0.075,0.090
'9:10.206',0.085,0.090
'9:10.208',0.085,0.090
'9:10.211',0.070,0.110
'9:10.214',0.070,0.110
'9:10.217',0.070,0.105
'9:10.219',0.070,0.105
'9:10.222',0.075,0.110
'9:10.225',0.075,0.100
'9:10.228',0.070,0.090
'9:10.231',0.065,0.095
'9:10.233',0.040,0.090
'9:10.236',0.050,0.080
'9:10.239',0.050,0.095
'9:10.242',0.050,0.100
'9:10.244',0.060,0.105
'9:10.247',0.065,0.110
'9:10.250',0.070,0.115
'9:10.253',0.075,0.105
'9:10.256',0.070,0.100
'9:10.258',0.065,0.085
'9:10.261',0.045,0.075
'9:10.264',0.050,0.075
'9:10.267',0.045,0.085
'9:10.269',0.045,0.085
'9:10.272',0.045,0.090
'9:10.275',0.060,0.090
'9:10.278',0.050,0.100
'9:10.281',0.055,0.110
'9:10.283',0.055,0.100
'9:10.286',0.050,0.100
'9:10.289',0.055,0.095
'9:10.292',0.035,0.085
'9:10.294',0.040,0.095
'9:10.297',0.045,0.085
'9:10.300',0.045,0.080
'9:10.303',0.050,0.080
'9:10.306',0.035,0.075
'9:10.308',0.040,0.085
'9:10.311',0.045,0.090
'9:10.314',0.050,0.090
'9:10.317',0.055,0.100
'9:10.319',0.055,0.105
'9:10.322',0.055,0.100
'9:10.325',0.055,0.100
'9:10.328',0.035,0.090
'9:10.331',0.045,0.085
'9:10.333',0.035,0.070
'9:10.336',0.030,0.075
'9:10.339',0.040,0.100
'9:10.342',0.060,0.095
'9:10.344',0.080,0.125
'9:10.347',0.105,0.150
'9:10.350',0.135,0.175
'9:10.353',0.150,0.195
'9:10.356',0.185,0.230
'9:10.358',0.195,0.245
'9:10.361',0.205,0.280
'9:10.364',0.195,0.270
'9:10.367',0.190,0.280
'9:10.369',0.200,0.275
'9:10.372',0.210,0.260
'9:10.375',0.240,0.255
'9:10.378',0.290,0.220
'9:10.381',0.315,0.200
'9:10.383',0.350,0.180
'9:10.386',0.350,0.145
'9:10.389',0.350,0.125
'9:10.392',0.305,0.100
'9:10.394',0.305,0.070
'9:10.397',0.285,0.080
'9:10.400',0.280,0.075
'9:10.403',0.270,0.075
'9:10.406',0.280,0.080
'9:10.408',0.280,0.075
'9:10.411',0.285,0.065
'9:10.414',0.285,0.045
'9:10.417',0.280,0.020
'9:10.419',0.255,0.020
'9:10.422',0.235,0.005
'9:10.425',0.205,0.010
'9:10.428',0.165,0.030
'9:10.431',0.135,0.035
'9:10.433',0.110,0.065
'9:10.436',0.090,0.060
'9:10.439',0.070,0.065
'9:10.442',0.055,0.060
'9:10.444',0.055,0.070
'9:10.447',0.065,0.085
'9:10.450',0.065,0.070
'9:10.453',0.055,0.070
'9:10.456',0.045,0.060
'9:10.458',0.020,0.060
'9:10.461',0.005,0.045
'9:10.464',-0.015,0.025
'9:10.467',-0.025,0.025
'9:10.469',-0.025,0.025
'9:10.472',-0.010,0.040
'9:10.475',0.000,0.055
'9:10.478',0.025,0.060
'9:10.481',0.045,0.075
'9:10.483',0.050,0.075
'9:10.486',0.045,0.090
'9:10.489',0.035,0.120
'9:10.492',0.030,0.155
'9:10.494',0.065,0.180
'9:10.497',0.125,0.225
'9:10.500',0.235,0.230
'9:10.503',0.415,0.195
'9:10.506',0.630,0.110
'9:10.508',0.845,-0.025
'9:10.511',1.040,-0.200
'9:10.514',1.235,-0.420
'9:10.517',1.425,-0.710
'9:10.519',1.620,-1.035
'9:10.522',1.790,-1.385
'9:10.525',1.940,-1.690
'9:10.528',2.025,-1.905
'9:10.531',2.050,-2.010
'9:10.533',2.005,-2.005
'9:10.536',1.885,-1.905
'9:10.539',1.685,-1.770
'9:10.542',1.390,-1.590
'9:10.544',1.055,-1.420
'9:10.547',0.725,-1.210
'9:10.550',0.455,-1.000
'9:10.553',0.265,-0.805
'9:10.556',0.155,-0.645
'9:10.558',0.105,-0.520
'9:10.561',0.080,-0.435
'9:10.564',0.060,-0.360
'9:10.567',0.035,-0.280
'9:10.569',-0.010,-0.230
'9:10.572',-0.050,-0.145
'9:10.575',-0.090,-0.065
'9:10.578',-0.130,0.005
'9:10.581',-0.135,0.065
'9:10.583',-0.150,0.095
'9:10.586',-0.160,0.110
'9:10.589',-0.155,0.105
'9:10.592',-0.170,0.110
'9:10.594',-0.175,0.095
'9:10.597',-0.180,0.110
'9:10.600',-0.190,0.110
'9:10.603',-0.190,0.130
'9:10.606',-0.180,0.150
'9:10.608',-0.180,0.165
'9:10.611',-0.165,0.190
'9:10.614',-0.190,0.190
'9:10.617',-0.190,0.195
'9:10.619',-0.195,0.190
'9:10.622',-0.200,0.175
'9:10.625',-0.210,0.190
'9:10.628',-0.215,0.185
'9:10.631',-0.220,0.195
'9:10.633',-0.215,0.210
'9:10.636',-0.230,0.225
'9:10.639',-0.220,0.240
'9:10.642',-0.220,0.245
'9:10.644',-0.220,0.260
'9:10.647',-0.230,0.250
'9:10.650',-0.220,0.255
'9:10.653',-0.235,0.260
'9:10.656',-0.250,0.260
'9:10.658',-0.260,0.275
'9:10.661',-0.250,0.260
'9:10.664',-0.250,0.280
'9:10.667',-0.250,0.270
'9:10.669',-0.260,0.270
'9:10.672',-0.285,0.295
'9:10.675',-0.280,0.320
'9:10.678',-0.285,0.330
'9:10.681',-0.270,0.345
'9:10.683',-0.265,0.365
'9:10.686',-0.270,0.355
'9:10.689',-0.280,0.350
'9:10.692',-0.290,0.360
'9:10.694',-0.305,0.355
'9:10.697',-0.330,0.360
'9:10.700',-0.365,0.365
'9:10.703',-0.385,0.380
'9:10.706',-0.405,0.395
'9:10.708',-0.400,0.405
'9:10.711',-0.405,0.420
'9:10.714',-0.400,0.435
'9:10.717',-0.415,0.440
'9:10.719',-0.445,0.445
'9:10.722',-0.455,0.450
'9:10.725',-0.485,0.455
'9:10.728',-0.505,0.440
'9:10.731',-0.535,0.455
'9:10.733',-0.545,0.450
'9:10.736',-0.565,0.465
'9:10.739',-0.575,0.470
'9:10.742',-0.570,0.490
'9:10.744',-0.575,0.495
'9:10.747',-0.585,0.505
'9:10.750',-0.590,0.495
'9:10.753',-0.600,0.505
'9:10.756',-0.610,0.505
'9:10.758',-0.605,0.500
'9:10.761',-0.585,0.485
'9:10.764',-0.580,0.480
'9:10.767',-0.575,0.480
'9:10.769',-0.555,0.480
'9:10.772',-0.555,0.470
'9:10.775',-0.530,0.470
'9:10.778',-0.490,0.460
'9:10.781',-0.470,0.450
'9:10.783',-0.445,0.445
'9:10.786',-0.420,0.430
'9:10.789',-0.390,0.395
'9:10.792',-0.360,0.380
'9:10.794',-0.345,0.350
'9:10.797',-0.315,0.325
'9:10.800',-0.285,0.310
'9:10.803',-0.285,0.285
'9:10.806',-0.240,0.280
'9:10.808',-0.210,0.270
'9:10.811',-0.160,0.255
'9:10.814',-0.135,0.230
'9:10.817',-0.100,0.225
'9:10.819',-0.070,0.210
'9:10.822',-0.040,0.190
'9:10.825',-0.025,0.175
'9:10.828',-0.015,0.145
'9:10.831',0.000,0.135
'9:10.833',-0.005,0.125
'9:10.836',0.005,0.115
'9:10.839',-0.005,0.120
'9:10.842',0.010,0.125
'9:10.844',0.015,0.130
'9:10.847',0.030,0.130
'9:10.850',0.040,0.125
'9:10.853',0.045,0.120
'9:10.856',0.055,0.100
'9:10.858',0.050,0.100
'9:10.861',0.055,0.085
'9:10.864',0.050,0.085
'9:10.867',0.050,0.075
'9:10.869',0.055,0.085
'9:10.872',0.040,0.095
'9:10.875',0.050,0.110
'9:10.878',0.060,0.110
'9:10.881',0.055,0.120
'9:10.883',0.065,0.120
'9:10.886',0.060,0.105
'9:10.889',0.055,0.105
'9:10.892',0.050,0.100
'9:10.894',0.055,0.100
'9:10.897',0.040,0.105
'9:10.900',0.040,0.095
'9:10.903',0.035,0.115
'9:10.906',0.030,0.125
'9:10.908',0.040,0.125
'9:10.911',0.050,0.120
'9:10.914',0.060,0.125
'9:10.917',0.060,0.130
'9:10.919',0.065,0.120
'9:10.922',0.060,0.125
'9:10.925',0.075,0.135
'9:10.928',0.085,0.130
'9:10.931',0.075,0.130
'9:10.933',0.070,0.140
'9:10.936',0.085,0.160
'9:10.939',0.075,0.195
'9:10.942',0.120,0.220
'9:10.944',0.145,0.260
'9:10.947',0.170,0.300
'9:10.950',0.175,0.295
'9:10.953',0.195,0.305
'9:10.956',0.200,0.305
'9:10.958',0.220,0.290
'9:10.961',0.230,0.275
'9:10.964',0.240,0.270
'9:10.967',0.295,0.255
'9:10.969',0.320,0.240
'9:10.972',0.355,0.220
'9:10.975',0.390,0.205
'9:10.978',0.385,0.180
'9:10.981',0.380,0.145
'9:10.983',0.355,0.125
'9:10.986',0.345,0.120
'9:10.989',0.325,0.120
'9:10.992',0.315,0.125
'9:10.994',0.320,0.105
'9:10.997',0.330,0.100
'9:11.000',0.310,0.075
'9:11.003',0.300,0.070
'9:11.006',0.255,0.050
'9:11.008',0.250,0.050
'9:11.011',0.230,0.050
'9:11.014',0.200,0.060
'9:11.017',0.180,0.055
'9:11.019',0.155,0.075
'9:11.022',0.120,0.090
'9:11.025',0.095,0.080
'9:11.028',0.070,0.075
'9:11.031',0.060,0.075
'9:11.033',0.035,0.075
'9:11.036',0.025,0.060
'9:11.039',0.030,0.085
'9:11.042',0.045,0.080
'9:11.044',0.045,0.080
'9:11.047',0.055,0.070
'9:11.050',0.060,0.075
'9:11.053',0.035,0.065
'9:11.056',0.045,0.060
'9:11.058',0.030,0.050
'9:11.061',0.020,0.030
'9:11.064',0.010,0.050
'9:11.067',0.015,0.050
'9:11.069',0.015,0.050
'9:11.072',0.030,0.055
'9:11.075',0.015,0.090
'9:11.078',0.040,0.135
'9:11.081',0.060,0.185
'9:11.083',0.090,0.230
'9:11.086',0.155,0.245
'9:11.089',0.270,0.260
'9:11.092',0.435,0.215
'9:11.094',0.625,0.120
'9:11.097',0.820,-0.020
'9:11.100',1.025,-0.195
'9:11.103',1.220,-0.415
'9:11.106',1.415,-0.685
'9:11.108',1.615,-1.015
'9:11.111',1.790,-1.370
'9:11.114',1.935,-1.690
'9:11.117',2.025,-1.915
'9:11.119',2.050,-2.030
'9:11.122',2.025,-2.040
'9:11.125',1.905,-1.960
'9:11.128',1.690,-1.820
'9:11.131',1.395,-1.650
'9:11.133',1.050,-1.435
'9:11.136',0.710,-1.210
'9:11.139',0.435,-1.000
'9:11.142',0.250,-0.780
'9:11.144',0.145,-0.620
'9:11.147',0.085,-0.505
'9:11.150',0.070,-0.410
'9:11.153',0.065,-0.340
'9:11.156',0.060,-0.275
'9:11.158',0.025,-0.205
'9:11.161',-0.025,-0.140
'9:11.164',-0.085,-0.060
'9:11.167',-0.115,0.005
'9:11.169',-0.110,0.045
'9:11.172',-0.125,0.070
'9:11.175',-0.125,0.085
'9:11.178',-0.120,0.095
'9:11.181',-0.110,0.120
'9:11.183',-0.100,0.135
'9:11.186',-0.105,0.135
'9:11.189',-0.110,0.140
'9:11.192',-0.125,0.140
'9:11.194',-0.125,0.140
'9:11.197',-0.140,0.155
'9:11.200',-0.150,0.155
'9:11.203',-0.155,0.170
'9:11.206',-0.160,0.175
'9:11.208',-0.145,0.210
'9:11.211',-0.140,0.205
'9:11.214',-0.130,0.225
'9:11.217',-0.130,0.225
'9:11.219',-0.135,0.220
'9:11.222',-0.150,0.225
'9:11.225',-0.145,0.225
'9:11.228',-0.145,0.210
'9:11.231',-0.165,0.225
'9:11.233',-0.170,0.235
'9:11.236',-0.180,0.240
'9:11.239',-0.175,0.250
'9:11.242',-0.165,0.265
'9:11.244',-0.165,0.280
'9:11.247',-0.155,0.305
'9:11.250',-0.155,0.285
'9:11.253',-0.170,0.295
'9:11.256',-0.170,0.305
'9:11.258',-0.190,0.320
'9:11.261',-0.215,0.315
'9:11.264',-0.235,0.330
'9:11.267',-0.255,0.335
'9:11.269',-0.250,0.345
'9:11.272',-0.255,0.355
'9:11.275',-0.260,0.380
'9:11.278',-0.265,0.390
'9:11.281',-0.270,0.405
'9:11.283',-0.270,0.420
'9:11.286',-0.280,0.420
'9:11.289',-0.290,0.430
'9:11.292',-0.305,0.440
'9:11.294',-0.315,0.445
'9:11.297',-0.335,0.445
'9:11.300',-0.355,0.465
'9:11.303',-0.360,0.475
'9:11.306',-0.385,0.490
'9:11.308',-0.390,0.495
'9:11.311',-0.395,0.515
'9:11.314',-0.410,0.525
'9:11.317',-0.405,0.530
'9:11.319',-0.415,0.545
'9:11.322',-0.420,0.545
'9:11.325',-0.425,0.560
'9:11.328',-0.435,0.540
'9:11.331',-0.455,0.550
'9:11.333',-0.455,0.535
'9:11.336',-0.445,0.535
'9:11.339',-0.435,0.530
'9:11.342',-0.415,0.540
'9:11.344',-0.405,0.545
'9:11.347',-0.375,0.565
'9:11.350',-0.365,0.550
'9:11.353',-0.345,0.540
'9:11.356',-0.325,0.515
'9:11.358',-0.320,0.500
'9:11.361',-0.305,0.470
'9:11.364',-0.280,0.445
'9:11.367',-0.265,0.430
'9:11.369',-0.230,0.415
'9:11.372',-0.210,0.395
'9:11.375',-0.180,0.385
'9:11.378',-0.150,0.365
'9:11.381',-0.115,0.340
'9:11.383',-0.100,0.320
'9:11.386',-0.075,0.290
'9:11.389',-0.055,0.265
'9:11.392',-0.045,0.240
'9:11.394',-0.045,0.215
'9:11.397',-0.035,0.205
'9:11.400',-0.030,0.195
'9:11.403',-0.010,0.185
'9:11.406',0.005,0.185
'9:11.408',0.020,0.165
'9:11.411',0.025,0.165
'9:11.414',0.045,0.155
'9:11.417',0.035,0.145
'9:11.419',0.030,0.150
'9:11.422',0.030,0.125
'9:11.425',0.025,0.130
'9:11.428',0.025,0.130
'9:11.431',0.025,0.110
'9:11.433',0.015,0.115
'9:11.436',0.010,0.120
'9:11.439',0.025,0.105
'9:11.442',0.015,0.110
'9:11.444',0.020,0.115
'9:11.447',0.025,0.120
'9:11.450',0.015,0.110
'9:11.453',0.010,0.115
'9:11.456',0.000,0.115
'9:11.458',0.000,0.105
'9:11.461',0.010,0.100
'9:11.464',0.005,0.090
'9:11.467',0.010,0.090
'9:11.469',0.010,0.105
'9:11.472',0.005,0.100
'9:11.475',0.005,0.105
'9:11.478',0.015,0.105
'9:11.481',0.005,0.120
'9:11.483',0.010,0.120
'9:11.486',0.015,0.115
'9:11.489',0.020,0.115
'9:11.492',0.005,0.100
'9:11.494',0.010,0.105
'9:11.497',0.000,0.090
'9:11.500',-0.010,0.090
'9:11.503',-0.020,0.095
'9:11.506',-0.010,0.105
'9:11.508',-0.005,0.110
'9:11.511',0.000,0.125
'9:11.514',0.030,0.145
'9:11.517',0.050,0.130
'9:11.519',0.060,0.135
'9:11.522',0.080,0.140
'9:11.525',0.070,0.150
'9:11.528',0.080,0.165
'9:11.531',0.080,0.195
'9:11.533',0.085,0.225
'9:11.536',0.105,0.260
'9:11.539',0.130,0.285
'9:11.542',0.150,0.305
'9:11.544',0.150,0.310
'9:11.547',0.180,0.305
'9:11.550',0.195,0.295
'9:11.553',0.225,0.295
'9:11.556',0.250,0.265
'9:11.558',0.285,0.240
'9:11.561',0.320,0.195
'9:11.564',0.330,0.180
'9:11.567',0.315,0.150
'9:11.569',0.300,0.115
'9:11.572',0.290,0.120
'9:11.575',0.265,0.110
'9:11.578',0.265,0.115
'9:11.581',0.270,0.130
'9:11.583',0.285,0.120
'9:11.586',0.295,0.115
'9:11.589',0.300,0.090
'9:11.592',0.275,0.070
'9:11.594',0.255,0.045
'9:11.597',0.215,0.020
'9:11.600',0.180,0.015
'9:11.603',0.150,0.025
'9:11.606',0.120,0.030
'9:11.608',0.105,0.060
'9:11.611',0.075,0.090
'9:11.614',0.075,0.095
'9:11.617',0.060,0.090
'9:11.619',0.040,0.085
'9:11.622',0.025,0.085
'9:11.625',0.010,0.075
'9:11.628',-0.015,0.070
'9:11.631',-0.025,0.070
'9:11.633',-0.025,0.045
'9:11.636',-0.030,0.060
'9:11.639',-0.025,0.055
'9:11.642',-0.010,0.070
'9:11.644',-0.005,0.080
'9:11.647',0.000,0.075
'9:11.650',0.005,0.080
'9:11.653',-0.005,0.070
'9:11.656',-0.010,0.075
'9:11.658',-0.005,0.060
'9:11.661',-0.010,0.075
'9:11.664',-0.030,0.080
'9:11.667',-0.025,0.100
'9:11.669',-0.015,0.145
'9:11.672',0.020,0.205
'9:11.675',0.115,0.240
'9:11.678',0.220,0.265
'9:11.681',0.370,0.245
'9:11.683',0.560,0.180
'9:11.686',0.770,0.050
'9:11.689',0.970,-0.115
'9:11.692',1.155,-0.305
'9:11.694',1.355,-0.580
'9:11.697',1.540,-0.890
'9:11.700',1.725,-1.255
'9:11.703',1.880,-1.595
'9:11.706',1.975,-1.860
'9:11.708',2.010,-1.985
'9:11.711',1.980,-2.000
'9:11.714',1.870,-1.925
'9:11.717',1.655,-1.770
'9:11.719',1.330,-1.580
'9:11.722',0.955,-1.370
'9:11.725',0.610,-1.145
'9:11.728',0.330,-0.915
'9:11.731',0.150,-0.715
'9:11.733',0.055,-0.575
'9:11.736',0.030,-0.465
'9:11.739',0.015,-0.370
'9:11.742',0.000,-0.280
'9:11.744',-0.015,-0.190
'9:11.747',-0.055,-0.110
'9:11.750',-0.085,-0.035
'9:11.753',-0.125,0.020
'9:11.756',-0.155,0.075
'9:11.758',-0.180,0.080
'9:11.761',-0.190,0.085
'9:11.764',-0.205,0.090
'9:11.767',-0.215,0.095
'9:11.769',-0.205,0.110
'9:11.772',-0.210,0.115
'9:11.775',-0.205,0.135
'9:11.778',-0.200,0.170
'9:11.781',-0.195,0.180
'9:11.783',-0.185,0.195
'9:11.786',-0.195,0.195
'9:11.789',-0.205,0.200
'9:11.792',-0.215,0.195
'9:11.794',-0.225,0.195
'9:11.797',-0.230,0.200
'9:11.800',-0.240,0.215
'9:11.803',-0.245,0.220
'9:11.806',-0.240,0.225
'9:11.808',-0.230,0.235
'9:11.811',-0.230,0.250
'9:11.814',-0.230,0.260
'9:11.817',-0.240,0.270
'9:11.819',-0.240,0.280
'9:11.822',-0.250,0.275
'9:11.825',-0.245,0.290
'9:11.828',-0.250,0.285
'9:11.831',-0.260,0.280
'9:11.833',-0.270,0.280
'9:11.836',-0.265,0.285
'9:11.839',-0.285,0.315
'9:11.842',-0.300,0.330
'9:11.844',-0.295,0.345
'9:11.847',-0.290,0.370
'9:11.850',-0.305,0.360
'9:11.853',-0.315,0.365
'9:11.856',-0.320,0.370
'9:11.858',-0.340,0.365
'9:11.861',-0.355,0.370
'9:11.864',-0.370,0.375
'9:11.867',-0.390,0.385
'9:11.869',-0.400,0.410
'9:11.872',-0.415,0.415
'9:11.875',-0.415,0.425
'9:11.878',-0.430,0.440
'9:11.881',-0.435,0.460
'9:11.883',-0.455,0.460
'9:11.886',-0.460,0.470
'9:11.889',-0.470,0.480
'9:11.892',-0.485,0.480
'9:11.894',-0.495,0.485
'9:11.897',-0.515,0.485
'9:11.900',-0.525,0.500
'9:11.903',-0.540,0.515
'9:11.906',-0.550,0.515
'9:11.908',-0.570,0.530
'9:11.911',-0.565,0.535
'9:11.914',-0.560,0.545
'9:11.917',-0.555,0.540
'9:11.919',-0.555,0.540
'9:11.922',-0.525,0.530
'9:11.925',-0.525,0.545
'9:11.928',-0.515,0.525
'9:11.931',-0.505,0.505
'9:11.933',-0.495,0.485
'9:11.936',-0.470,0.485
'9:11.939',-0.450,0.460
'9:11.942',-0.420,0.455
'9:11.944',-0.390,0.455
'9:11.947',-0.345,0.430
'9:11.950',-0.320,0.425
'9:11.953',-0.275,0.400
'9:11.956',-0.255,0.375
'9:11.958',-0.225,0.345
'9:11.961',-0.200,0.315
'9:11.964',-0.190,0.285
'9:11.967',-0.160,0.260
'9:11.969',-0.145,0.250
'9:11.972',-0.125,0.240
'9:11.975',-0.115,0.230
'9:11.978',-0.090,0.210
'9:11.981',-0.065,0.205
'9:11.983',-0.045,0.190
'9:11.986',-0.035,0.180
'9:11.989',-0.020,0.170
'9:11.992',-0.010,0.140
'9:11.994',-0.010,0.130
'9:11.997',-0.025,0.125
'9:12.000',-0.030,0.120
'9:12.003',-0.025,0.130
'9:12.006',-0.015,0.135
'9:12.008',0.005,0.145
'9:12.011',0.020,0.145
'9:12.014',0.050,0.150
'9:12.017',0.075,0.145
'9:12.019',0.080,0.130
'9:12.022',0.110,0.130
'9:12.025',0.140,0.110
'9:12.028',0.155,0.110
'9:12.031',0.200,0.110
'9:12.033',0.245,0.100
'9:12.036',0.305,0.115
'9:12.039',0.365,0.120
'9:12.042',0.445,0.125
'9:12.044',0.520,0.115
'9:12.047',0.610,0.120
'9:12.050',0.715,0.095
'9:12.053',0.805,0.095
'9:12.056',0.900,0.075
'9:12.058',0.960,0.060
'9:12.061',0.940,0.030
'9:12.064',0.835,-0.005
'9:12.067',0.655,-0.060
'9:12.069',0.385,-0.095
'9:12.072',0.055,-0.145
'9:12.075',-0.295,-0.175
'9:12.078',-0.635,-0.175
'9:12.081',-0.930,-0.160
'9:12.083',-1.180,-0.145
'9:12.086',-1.395,-0.165
'9:12.089',-1.560,-0.200
'9:12.092',-1.705,-0.240
'9:12.094',-1.825,-0.285
'9:12.097',-1.925,-0.300
'9:12.100',-2.020,-0.285
'9:12.103',-2.080,-0.215
'9:12.106',-2.115,-0.105
'9:12.108',-2.125,0.015
'9:12.111',-2.095,0.155
'9:12.114',-2.065,0.280
'9:12.117',-2.010,0.405
'9:12.119',-1.960,0.520
'9:12.122',-1.875,0.625
'9:12.125',-1.780,0.715
'9:12.128',-1.670,0.780
'9:12.131',-1.555,0.830
'9:12.133',-1.435,0.870
'9:12.136',-1.330,0.910
'9:12.139',-1.235,0.940
'9:12.142',-1.125,0.955
'9:12.144',-1.025,0.940
'9:12.147',-0.895,0.855
'9:12.150',-0.750,0.690
'9:12.153',-0.645,0.460
'9:12.156',-0.535,0.210
'9:12.158',-0.465,-0.045
'9:12.161',-0.395,-0.225
'9:12.164',-0.360,-0.335
'9:12.167',-0.315,-0.370
'9:12.169',-0.260,-0.345
'9:12.172',-0.150,-0.275
'9:12.175',-0.015,-0.220
'9:12.178',0.140,-0.155
'9:12.181',0.285,-0.100
'9:12.183',0.395,-0.060
'9:12.186',0.455,-0.035
'9:12.189',0.480,-0.020
'9:12.192',0.465,-0.005
'9:12.194',0.435,0.005
'9:12.197',0.410,0.020
'9:12.200',0.395,0.025
'9:12.203',0.385,0.030
'9:12.206',0.400,0.045
'9:12.208',0.415,0.050
'9:12.211',0.430,0.055
'9:12.214',0.455,0.075
'9:12.217',0.460,0.055
'9:12.219',0.445,0.060
'9:12.222',0.450,0.070
'9:12.225',0.445,0.060
'9:12.228',0.440,0.050
'9:12.231',0.450,0.050
'9:12.233',0.455,0.050
'9:12.236',0.485,0.045
'9:12.239',0.505,0.060
'9:12.242',0.535,0.060
'9:12.244',0.555,0.065
'9:12.247',0.570,0.070
'9:12.250',0.595,0.075
'9:12.253',0.615,0.070
'9:12.256',0.620,0.065
'9:12.258',0.625,0.045
'9:12.261',0.630,0.040
'9:12.264',0.645,0.030
'9:12.267',0.660,0.040
'9:12.269',0.685,0.025
'9:12.272',0.695,0.040
'9:12.275',0.700,0.045
'9:12.278',0.720,0.050
'9:12.281',0.735,0.065
'9:12.283',0.740,0.055
'9:12.286',0.775,0.060
'9:12.289',0.810,0.045
'9:12.292',0.825,0.030
'9:12.294',0.850,0.025
'9:12.297',0.860,0.020
'9:12.300',0.870,0.020
'9:12.303',0.865,0.035
'9:12.306',0.880,0.025
'9:12.308',0.900,0.030
'9:12.311',0.920,0.040
'9:12.314',0.930,0.045
'9:12.317',0.945,0.040
'9:12.319',0.970,0.045
'9:12.322',0.990,0.040
'9:12.325',0.995,0.030
'9:12.328',0.985,0.015
'9:12.331',0.965,-0.005
'9:12.333',0.950,-0.005
'9:12.336',0.940,0.000
'9:12.339',0.925,-0.005
'9:12.342',0.910,-0.005
'9:12.344',0.885,-0.005
'9:12.347',0.865,-0.010
'9:12.350',0.850,-0.005
'9:12.353',0.825,-0.005
'9:12.356',0.805,-0.005
'9:12.358',0.780,0.000
'9:12.361',0.750,-0.020
'9:12.364',0.710,-0.005
'9:12.367',0.670,-0.010
'9:12.369',0.625,-0.005
'9:12.372',0.585,0.010
'9:12.375',0.540,0.015
'9:12.378',0.510,0.035
'9:12.381',0.490,0.045
'9:12.383',0.460,0.055
'9:12.386',0.455,0.055
'9:12.389',0.420,0.065
'9:12.392',0.385,0.075
'9:12.394',0.345,0.100
'9:12.397',0.300,0.090
'9:12.400',0.270,0.100
'9:12.403',0.250,0.120
'9:12.406',0.215,0.125
'9:12.408',0.195,0.140
'9:12.411',0.185,0.155
'9:12.414',0.180,0.175
'9:12.417',0.165,0.180
'9:12.419',0.150,0.175
'9:12.422',0.130,0.165
'9:12.425',0.110,0.155
'9:12.428',0.095,0.155
'9:12.431',0.090,0.160
'9:12.433',0.075,0.155
'9:12.436',0.075,0.170
'9:12.439',0.080,0.170
'9:12.442',0.085,0.175
'9:12.444',0.085,0.185
'9:12.447',0.080,0.185
'9:12.450',0.095,0.180
'9:12.453',0.080,0.180
'9:12.456',0.080,0.175
'9:12.458',0.070,0.160
'9:12.461',0.060,0.165
'9:12.464',0.060,0.160
'9:12.467',0.060,0.165
'9:12.469',0.055,0.165
'9:12.472',0.060,0.175
'9:12.475',0.050,0.165
'9:12.478',0.050,0.165
'9:12.481',0.050,0.175
'9:12.483',0.055,0.175
'9:12.486',0.065,0.170
'9:12.489',0.065,0.175
'9:12.492',0.060,0.175
'9:12.494',0.060,0.165
'9:12.497',0.045,0.165
'9:12.500',0.035,0.160
'9:12.503',0.055,0.170
'9:12.506',0.050,0.165
'9:12.508',0.045,0.160
'9:12.511',0.050,0.165
'9:12.514',0.050,0.180
'9:12.517',0.040,0.175
'9:12.519',0.030,0.190
'9:12.522',0.025,0.175
'9:12.525',0.010,0.175
'9:12.528',0.020,0.165
'9:12.531',0.025,0.150
'9:12.533',0.020,0.145
'9:12.536',0.015,0.155
'9:12.539',0.010,0.155
'9:12.542',0.010,0.165
'9:12.544',0.015,0.175
'9:12.547',0.010,0.175
'9:12.550',0.020,0.175
'9:12.553',0.010,0.175
'9:12.556',0.010,0.150
'9:12.558',0.000,0.140
'9:12.561',-0.020,0.145
'9:12.564',-0.020,0.135
'9:12.567',-0.030,0.140
'9:12.569',-0.010,0.150
'9:12.572',-0.005,0.155
'9:12.575',0.010,0.160
'9:12.578',0.020,0.180
'9:12.581',0.020,0.170
'9:12.583',0.010,0.155
'9:12.586',-0.010,0.170
'9:12.589',-0.030,0.165
'9:12.592',-0.040,0.160
'9:12.594',-0.035,0.150
'9:12.597',-0.045,0.155
'9:12.600',-0.035,0.145
'9:12.603',-0.035,0.145
'9:12.606',-0.030,0.140
'9:12.608',-0.040,0.140
'9:12.611',-0.035,0.160
'9:12.614',-0.040,0.160
'9:12.617',-0.020,0.150
'9:12.619',-0.030,0.165
'9:12.622',-0.035,0.160
'9:12.625',-0.030,0.150
'9:12.628',-0.025,0.140
'9:12.631',-0.035,0.130
'9:12.633',-0.045,0.130
'9:12.636',-0.055,0.125
'9:12.639',-0.035,0.140
'9:12.642',-0.045,0.140
'9:12.644',-0.035,0.150
'9:12.647',-0.035,0.160
'9:12.650',-0.015,0.160
'9:12.653',-0.020,0.145
'9:12.656',-0.010,0.155
'9:12.658',-0.020,0.135
'9:12.661',-0.040,0.135
'9:12.664',-0.040,0.125
'9:12.667',-0.050,0.125
'9:12.669',-0.050,0.125
'9:12.672',-0.055,0.135
'9:12.675',-0.055,0.155
'9:12.678',-0.040,0.155
'9:12.681',-0.030,0.160
'9:12.683',-0.025,0.155
'9:12.686',-0.020,0.155
'9:12.689',-0.015,0.145
'9:12.692',-0.015,0.125
'9:12.694',-0.020,0.120
'9:12.697',-0.020,0.130
'9:12.700',-0.015,0.145
'9:12.703',-0.005,0.155
'9:12.706',0.010,0.165
'9:12.708',0.035,0.190
'9:12.711',0.035,0.215
'9:12.714',0.055,0.250
'9:12.717',0.090,0.280
'9:12.719',0.090,0.295
'9:12.722',0.105,0.315
'9:12.725',0.120,0.315
'9:12.728',0.125,0.310
'9:12.731',0.125,0.325
'9:12.733',0.140,0.310
'9:12.736',0.170,0.300
'9:12.739',0.205,0.290
'9:12.742',0.235,0.270
'9:12.744',0.275,0.250
'9:12.747',0.270,0.240
'9:12.750',0.270,0.210
'9:12.753',0.260,0.185
'9:12.756',0.240,0.180
'9:12.758',0.230,0.155
'9:12.761',0.230,0.150
'9:12.764',0.225,0.150
'9:12.767',0.225,0.155
'9:12.769',0.235,0.140
'9:12.772',0.235,0.125
'9:12.775',0.230,0.130
'9:12.778',0.225,0.100
'9:12.781',0.200,0.090
'9:12.783',0.175,0.080
'9:12.786',0.120,0.090
'9:12.789',0.080,0.085
'9:12.792',0.050,0.110
'9:12.794',0.025,0.115
'9:12.797',-0.005,0.105
'9:12.800',-0.025,0.105
'9:12.803',-0.045,0.110
'9:12.806',-0.050,0.115
'9:12.808',-0.055,0.125
'9:12.811',-0.055,0.120
'9:12.814',-0.065,0.135
'9:12.817',-0.060,0.130
'9:12.819',-0.085,0.125
'9:12.822',-0.080,0.100
'9:12.825',-0.090,0.105
'9:12.828',-0.080,0.095
'9:12.831',-0.080,0.090
'9:12.833',-0.090,0.090
'9:12.836',-0.080,0.095
'9:12.839',-0.080,0.095
'9:12.842',-0.070,0.105
'9:12.844',-0.065,0.125
'9:12.847',-0.070,0.145
'9:12.850',-0.060,0.175
'9:12.853',-0.060,0.195
'9:12.856',-0.015,0.235
'9:12.858',0.050,0.260
'9:12.861',0.165,0.270
'9:12.864',0.335,0.250
'9:12.867',0.545,0.170
'9:12.869',0.760,0.045
'9:12.872',0.965,-0.105
'9:12.875',1.165,-0.280
'9:12.878',1.350,-0.505
'9:12.881',1.530,-0.775
'9:12.883',1.705,-1.060
'9:12.886',1.835,-1.365
'9:12.889',1.935,-1.625
'9:12.892',1.980,-1.775
'9:12.894',1.965,-1.840
'9:12.897',1.880,-1.805
'9:12.900',1.695,-1.725
'9:12.903',1.425,-1.580
'9:12.906',1.065,-1.405
'9:12.908',0.715,-1.220
'9:12.911',0.425,-1.020
'9:12.914',0.220,-0.810
'9:12.917',0.125,-0.645
'9:12.919',0.055,-0.510
'9:12.922',0.040,-0.410
'9:12.925',0.020,-0.340
'9:12.928',-0.005,-0.270
'9:12.931',-0.045,-0.205
'9:12.933',-0.115,-0.130
'9:12.936',-0.150,-0.055
'9:12.939',-0.200,0.020
'9:12.942',-0.225,0.085
'9:12.944',-0.245,0.115
'9:12.947',-0.240,0.130
'9:12.950',-0.230,0.150
'9:12.953',-0.240,0.155
'9:12.956',-0.230,0.135
'9:12.958',-0.240,0.140
'9:12.961',-0.250,0.140
'9:12.964',-0.260,0.155
'9:12.967',-0.270,0.165
'9:12.969',-0.275,0.170
'9:12.972',-0.270,0.190
'9:12.975',-0.275,0.200
'9:12.978',-0.285,0.215
'9:12.981',-0.275,0.215
'9:12.983',-0.260,0.225
'9:12.986',-0.260,0.225
'9:12.989',-0.245,0.215
'9:12.992',-0.260,0.230
'9:12.994',-0.270,0.230
'9:12.997',-0.295,0.225
'9:13.000',-0.315,0.230
'9:13.003',-0.330,0.255
'9:13.006',-0.330,0.255
'9:13.008',-0.335,0.255
'9:13.011',-0.320,0.270
'9:13.014',-0.305,0.270
'9:13.017',-0.305,0.275
'9:13.019',-0.305,0.290
'9:13.022',-0.310,0.295
'9:13.025',-0.315,0.300
'9:13.028',-0.325,0.300
'9:13.031',-0.335,0.305
'9:13.033',-0.340,0.310
'9:13.036',-0.345,0.310
'9:13.039',-0.350,0.315
'9:13.042',-0.365,0.325
'9:13.044',-0.370,0.345
'9:13.047',-0.370,0.340
'9:13.050',-0.370,0.350
'9:13.053',-0.375,0.355
'9:13.056',-0.385,0.355
'9:13.058',-0.400,0.360
'9:13.061',-0.425,0.355
'9:13.064',-0.455,0.380
'9:13.067',-0.470,0.365
'9:13.069',-0.480,0.385
'9:13.072',-0.490,0.385
'9:13.075',-0.505,0.400
'9:13.078',-0.515,0.420
'9:13.081',-0.510,0.425
'9:13.083',-0.525,0.440
'9:13.086',-0.540,0.445
'9:13.089',-0.555,0.450
'9:13.092',-0.575,0.445
'9:13.094',-0.590,0.430
'9:13.097',-0.620,0.430
'9:13.100',-0.635,0.440
'9:13.103',-0.660,0.450
'9:13.106',-0.685,0.465
'9:13.108',-0.690,0.475
'9:13.111',-0.690,0.500
'9:13.114',-0.700,0.510
'9:13.117',-0.695,0.500
'9:13.119',-0.695,0.500
'9:13.122',-0.700,0.495
'9:13.125',-0.725,0.500
'9:13.128',-0.725,0.485
'9:13.131',-0.735,0.480
'9:13.133',-0.745,0.485
'9:13.136',-0.740,0.490
'9:13.139',-0.730,0.495
'9:13.142',-0.700,0.495
'9:13.144',-0.690,0.500
'9:13.147',-0.665,0.490
'9:13.150',-0.650,0.475
'9:13.153',-0.625,0.465
'9:13.156',-0.600,0.450
'9:13.158',-0.575,0.430
'9:13.161',-0.560,0.420
'9:13.164',-0.535,0.410
'9:13.167',-0.510,0.390
'9:13.169',-0.455,0.380
'9:13.172',-0.420,0.370
'9:13.175',-0.385,0.345
'9:13.178',-0.350,0.330
'9:13.181',-0.305,0.325
'9:13.183',-0.280,0.300
'9:13.186',-0.245,0.290
'9:13.189',-0.210,0.275
'9:13.192',-0.185,0.260
'9:13.194',-0.155,0.235
'9:13.197',-0.150,0.215
'9:13.200',-0.140,0.185
'9:13.203',-0.125,0.180
'9:13.206',-0.110,0.170
'9:13.208',-0.125,0.170
'9:13.211',-0.100,0.165
'9:13.214',-0.085,0.170
'9:13.217',-0.065,0.165
'9:13.219',-0.050,0.160
'9:13.222',-0.045,0.185
'9:13.225',-0.045,0.155
'9:13.228',-0.035,0.145
'9:13.231',-0.055,0.135
'9:13.233',-0.055,0.130
'9:13.236',-0.055,0.135
'9:13.239',-0.055,0.130
'9:13.242',-0.070,0.135
'9:13.244',-0.065,0.145
'9:13.247',-0.065,0.170
'9:13.250',-0.055,0.160
'9:13.253',-0.050,0.160
'9:13.256',-0.045,0.150
'9:13.258',-0.050,0.150
'9:13.261',-0.055,0.140
'9:13.264',-0.055,0.130
'9:13.267',-0.075,0.135
'9:13.269',-0.060,0.140
'9:13.272',-0.040,0.150
'9:13.275',-0.030,0.155
'9:13.278',-0.025,0.160
'9:13.281',-0.020,0.160
'9:13.283',-0.025,0.165
'9:13.286',-0.040,0.175
'9:13.289',-0.040,0.150
'9:13.292',-0.025,0.150
'9:13.294',-0.020,0.145
'9:13.297',-0.025,0.145
'9:13.300',-0.035,0.150
'9:13.303',-0.050,0.170
'9:13.306',-0.050,0.175
'9:13.308',-0.045,0.170
'9:13.311',-0.025,0.180
'9:13.314',-0.010,0.185
'9:13.317',0.020,0.205
'9:13.319',0.040,0.225
'9:13.322',0.060,0.240
'9:13.325',0.065,0.270
'9:13.328',0.065,0.290
'9:13.331',0.075,0.295
'9:13.333',0.080,0.310
'9:13.336',0.095,0.320
'9:13.339',0.105,0.325
'9:13.342',0.125,0.320
'9:13.344',0.150,0.345
'9:13.347',0.155,0.350
'9:13.350',0.190,0.360
'9:13.353',0.230,0.335
'9:13.356',0.250,0.310
'9:13.358',0.275,0.260
'9:13.361',0.275,0.230
'9:13.364',0.260,0.180
'9:13.367',0.235,0.155
'9:13.369',0.220,0.155
'9:13.372',0.205,0.155
'9:13.375',0.215,0.185
'9:13.378',0.225,0.190
'9:13.381',0.245,0.180
'9:13.383',0.275,0.170
'9:13.386',0.275,0.145
'9:13.389',0.255,0.125
'9:13.392',0.220,0.105
'9:13.394',0.185,0.090
'9:13.397',0.135,0.085
'9:13.400',0.095,0.095
'9:13.403',0.060,0.110
'9:13.406',0.045,0.120
'9:13.408',0.035,0.135
'9:13.411',0.020,0.150
'9:13.414',0.015,0.140
'9:13.417',0.015,0.140
'9:13.419',-0.015,0.135
'9:13.422',-0.035,0.130
'9:13.425',-0.040,0.130
'9:13.428',-0.055,0.125
'9:13.431',-0.060,0.120
'9:13.433',-0.065,0.125
'9:13.436',-0.055,0.120
'9:13.439',-0.050,0.120
'9:13.442',-0.050,0.110
'9:13.444',-0.045,0.120
'9:13.447',-0.050,0.120
'9:13.450',-0.025,0.115
'9:13.453',-0.030,0.120
'9:13.456',-0.050,0.120
'9:13.458',-0.035,0.140
'9:13.461',-0.035,0.175
'9:13.464',-0.030,0.205
'9:13.467',-0.005,0.245
'9:13.469',0.070,0.275
'9:13.472',0.175,0.300
'9:13.475',0.340,0.270
'9:13.478',0.555,0.200
'9:13.481',0.770,0.090
'9:13.483',0.965,-0.070
'9:13.486',1.160,-0.265
'9:13.489',1.345,-0.525
'9:13.492',1.525,-0.830
'9:13.494',1.680,-1.175
'9:13.497',1.815,-1.505
'9:13.500',1.910,-1.765
'9:13.503',1.955,-1.900
'9:13.506',1.940,-1.925
'9:13.508',1.875,-1.860
'9:13.511',1.730,-1.720
'9:13.514',1.475,-1.560
'9:13.517',1.150,-1.390
'9:13.519',0.780,-1.180
'9:13.522',0.455,-0.975
'9:13.525',0.205,-0.765
'9:13.528',0.060,-0.595
'9:13.531',0.000,-0.470
'9:13.533',-0.015,-0.365
'9:13.536',0.000,-0.280
'9:13.539',0.000,-0.205
'9:13.542',-0.035,-0.140
'9:13.544',-0.080,-0.050
'9:13.547',-0.130,0.020
'9:13.550',-0.185,0.080
'9:13.553',-0.195,0.130
'9:13.556',-0.200,0.150
'9:13.558',-0.195,0.175
'9:13.561',-0.195,0.155
'9:13.564',-0.190,0.160
'9:13.567',-0.195,0.170
'9:13.569',-0.200,0.180
'9:13.572',-0.200,0.185
'9:13.575',-0.210,0.205
'9:13.578',-0.210,0.230
'9:13.581',-0.225,0.240
'9:13.583',-0.225,0.240
'9:13.586',-0.225,0.250
'9:13.589',-0.235,0.245
'9:13.592',-0.235,0.235
'9:13.594',-0.250,0.235
'9:13.597',-0.265,0.240
'9:13.600',-0.270,0.245
'9:13.603',-0.260,0.260
'9:13.606',-0.255,0.270
'9:13.608',-0.245,0.290
'9:13.611',-0.240,0.305
'9:13.614',-0.230,0.325
'9:13.617',-0.245,0.325
'9:13.619',-0.260,0.320
'9:13.622',-0.265,0.330
'9:13.625',-0.270,0.325
'9:13.628',-0.275,0.315
'9:13.631',-0.265,0.320
'9:13.633',-0.275,0.330
'9:13.636',-0.300,0.350
'9:13.639',-0.285,0.355
'9:13.642',-0.285,0.375
'9:13.644',-0.290,0.385
'9:13.647',-0.300,0.390
'9:13.650',-0.305,0.405
'9:13.653',-0.310,0.415
'9:13.656',-0.330,0.410
'9:13.658',-0.335,0.415
'9:13.661',-0.335,0.435
'9:13.664',-0.355,0.435
'9:13.667',-0.370,0.455
'9:13.669',-0.390,0.460
'9:13.672',-0.395,0.475
'9:13.675',-0.395,0.495
'9:13.678',-0.405,0.515
'9:13.681',-0.415,0.530
'9:13.683',-0.420,0.545
'9:13.686',-0.425,0.540
'9:13.689',-0.450,0.560
'9:13.692',-0.475,0.560
'9:13.694',-0.490,0.570
'9:13.697',-0.500,0.560
'9:13.700',-0.515,0.565
'9:13.703',-0.510,0.570
'9:13.706',-0.525,0.580
'9:13.708',-0.520,0.595
'9:13.711',-0.520,0.610
'9:13.714',-0.530,0.625
'9:13.717',-0.540,0.630
'9:13.719',-0.535,0.620
'9:13.722',-0.500,0.605
'9:13.725',-0.495,0.595
'9:13.728',-0.485,0.600
'9:13.731',-0.480,0.575
'9:13.733',-0.485,0.560
'9:13.736',-0.445,0.550
'9:13.739',-0.425,0.540
'9:13.742',-0.400,0.535
'9:13.744',-0.360,0.535
'9:13.747',-0.310,0.515
'9:13.750',-0.285,0.485
'9:13.753',-0.255,0.455
'9:13.756',-0.230,0.430
'9:13.758',-0.220,0.380
'9:13.761',-0.210,0.370
'9:13.764',-0.200,0.340
'9:13.767',-0.180,0.315
'9:13.769',-0.150,0.300
'9:13.772',-0.125,0.295
'9:13.775',-0.110,0.280
'9:13.778',-0.085,0.270
'9:13.781',-0.065,0.270
'9:13.783',-0.050,0.250
'9:13.786',-0.050,0.245
'9:13.789',-0.035,0.215
'9:13.792',-0.050,0.210
'9:13.794',-0.045,0.195
'9:13.797',-0.060,0.190
'9:13.800',-0.050,0.185
'9:13.803',-0.055,0.190
'9:13.806',-0.050,0.190
'9:13.808',-0.045,0.185
'9:13.811',-0.050,0.180
'9:13.814',-0.040,0.195
'9:13.817',-0.020,0.200
'9:13.819',-0.035,0.185
'9:13.822',-0.030,0.190
'9:13.825',-0.045,0.180
'9:13.828',-0.045,0.170
'9:13.831',-0.045,0.145
'9:13.833',-0.055,0.150
'9:13.836',-0.055,0.150
'9:13.839',-0.035,0.160
'9:13.842',-0.040,0.170
'9:13.844',-0.045,0.190
'9:13.847',-0.050,0.190
'9:13.850',-0.045,0.200
'9:13.853',-0.045,0.180
'9:13.856',-0.035,0.180
'9:13.858',-0.040,0.160
'9:13.861',-0.040,0.160
'9:13.864',-0.045,0.150
'9:13.867',-0.080,0.155
'9:13.869',-0.070,0.160
'9:13.872',-0.075,0.165
'9:13.875',-0.070,0.180
'9:13.878',-0.065,0.175
'9:13.881',-0.060,0.175
'9:13.883',-0.045,0.185
'9:13.886',-0.030,0.190
'9:13.889',-0.025,0.195
'9:13.892',-0.025,0.195
'9:13.894',-0.015,0.200
'9:13.897',-0.025,0.220
'9:13.900',-0.015,0.245
'9:13.903',-0.005,0.260
'9:13.906',0.005,0.290
'9:13.908',0.030,0.330
'9:13.911',0.065,0.340
'9:13.914',0.095,0.365
'9:13.917',0.110,0.360
'9:13.919',0.125,0.365
'9:13.922',0.125,0.360
'9:13.925',0.125,0.350
'9:13.928',0.155,0.325
'9:13.931',0.180,0.300
'9:13.933',0.210,0.280
'9:13.936',0.240,0.245
'9:13.939',0.240,0.215
'9:13.942',0.250,0.195
'9:13.944',0.230,0.190
'9:13.947',0.205,0.185
'9:13.950',0.200,0.200
'9:13.953',0.195,0.195
'9:13.956',0.205,0.190
'9:13.958',0.215,0.160
'9:13.961',0.210,0.130
'9:13.964',0.200,0.110
'9:13.967',0.160,0.090
'9:13.969',0.135,0.075
'9:13.972',0.100,0.080
'9:13.975',0.075,0.100
'9:13.978',0.055,0.125
'9:13.981',0.040,0.155
'9:13.983',0.025,0.165
'9:13.986',0.000,0.165
'9:13.989',-0.015,0.150
'9:13.992',-0.040,0.140
'9:13.994',-0.070,0.150
'9:13.997',-0.095,0.130
'9:14.000',-0.110,0.130
'9:14.003',-0.115,0.130
'9:14.006',-0.100,0.125
