'Elapsed time','MLII','V1'
'hh:mm:ss.mmm','mV','mV'
'4:00.000',-0.400,-0.410
'4:00.003',-0.410,-0.415
'4:00.006',-0.440,-0.420
'4:00.008',-0.465,-0.430
'4:00.011',-0.465,-0.415
'4:00.014',-0.460,-0.405
'4:00.017',-0.400,-0.395
'4:00.019',-0.305,-0.395
'4:00.022',-0.175,-0.430
'4:00.025',0.005,-0.475
'4:00.028',0.205,-0.545
'4:00.031',0.430,-0.625
'4:00.033',0.650,-0.705
'4:00.036',0.795,-0.770
'4:00.039',0.810,-0.795
'4:00.042',0.685,-0.765
'4:00.044',0.445,-0.700
'4:00.047',0.145,-0.595
'4:00.050',-0.120,-0.465
'4:00.053',-0.325,-0.370
'4:00.056',-0.410,-0.290
'4:00.058',-0.405,-0.270
'4:00.061',-0.360,-0.300
'4:00.064',-0.300,-0.355
'4:00.067',-0.265,-0.425
'4:00.069',-0.265,-0.475
'4:00.072',-0.285,-0.480
'4:00.075',-0.320,-0.490
'4:00.078',-0.345,-0.470
'4:00.081',-0.370,-0.445
'4:00.083',-0.375,-0.420
'4:00.086',-0.385,-0.410
'4:00.089',-0.375,-0.410
'4:00.092',-0.360,-0.395
'4:00.094',-0.365,-0.415
'4:00.097',-0.370,-0.405
'4:00.100',-0.375,-0.415
'4:00.103',-0.385,-0.410
'4:00.106',-0.390,-0.425
'4:00.108',-0.395,-0.420
'4:00.111',-0.405,-0.425
'4:00.114',-0.395,-0.415
'4:00.117',-0.395,-0.420
'4:00.119',-0.390,-0.400
'4:00.122',-0.385,-0.410
'4:00.125',-0.370,-0.390
'4:00.128',-0.370,-0.395
'4:00.131',-0.370,-0.400
'4:00.133',-0.375,-0.395
'4:00.136',-0.380,-0.405
'4:00.139',-0.380,-0.420
'4:00.142',-0.385,-0.425
'4:00.144',-0.390,-0.425
'4:00.147',-0.385,-0.420
'4:00.150',-0.370,-0.415
'4:00.153',-0.370,-0.410
'4:00.156',-0.360,-0.405
'4:00.158',-0.360,-0.400
'4:00.161',-0.350,-0.405
'4:00.164',-0.350,-0.405
'4:00.167',-0.350,-0.405
'4:00.169',-0.355,-0.410
'4:00.172',-0.365,-0.425
'4:00.175',-0.370,-0.420
'4:00.178',-0.365,-0.425
'4:00.181',-0.375,-0.430
'4:00.183',-0.365,-0.425
'4:00.186',-0.380,-0.410
'4:00.189',-0.365,-0.410
'4:00.192',-0.355,-0.415
'4:00.194',-0.350,-0.415
'4:00.197',-0.345,-0.415
'4:00.200',-0.345,-0.425
'4:00.203',-0.350,-0.425
'4:00.206',-0.355,-0.445
'4:00.208',-0.355,-0.445
'4:00.211',-0.360,-0.445
'4:00.214',-0.360,-0.445
'4:00.217',-0.355,-0.440
'4:00.219',-0.350,-0.435
'4:00.222',-0.340,-0.430
'4:00.225',-0.340,-0.420
'4:00.228',-0.335,-0.425
'4:00.231',-0.340,-0.435
'4:00.233',-0.335,-0.440
'4:00.236',-0.330,-0.450
'4:00.239',-0.340,-0.455
'4:00.242',-0.345,-0.460
'4:00.244',-0.355,-0.460
'4:00.247',-0.345,-0.455
'4:00.250',-0.350,-0.455
'4:00.253',-0.350,-0.450
'4:00.256',-0.330,-0.450
'4:00.258',-0.325,-0.440
'4:00.261',-0.330,-0.440
'4:00.264',-0.325,-0.450
'4:00.267',-0.325,-0.455
'4:00.269',-0.325,-0.470
'4:00.272',-0.335,-0.480
'4:00.275',-0.340,-0.465
'4:00.278',-0.335,-0.480
'4:00.281',-0.330,-0.485
'4:00.283',-0.315,-0.475
'4:00.286',-0.305,-0.465
'4:00.289',-0.300,-0.470
'4:00.292',-0.290,-0.450
'4:00.294',-0.285,-0.460
'4:00.297',-0.280,-0.465
'4:00.300',-0.265,-0.495
'4:00.303',-0.270,-0.495
'4:00.306',-0.280,-0.495
'4:00.308',-0.280,-0.510
'4:00.311',-0.280,-0.515
'4:00.314',-0.285,-0.510
'4:00.317',-0.270,-0.510
'4:00.319',-0.265,-0.505
'4:00.322',-0.255,-0.490
'4:00.325',-0.240,-0.485
'4:00.328',-0.230,-0.500
'4:00.331',-0.235,-0.495
'4:00.333',-0.235,-0.500
'4:00.336',-0.235,-0.515
'4:00.339',-0.255,-0.515
'4:00.342',-0.260,-0.520
'4:00.344',-0.275,-0.520
'4:00.347',-0.280,-0.505
'4:00.350',-0.285,-0.500
'4:00.353',-0.285,-0.490
'4:00.356',-0.275,-0.480
'4:00.358',-0.270,-0.465
'4:00.361',-0.280,-0.465
'4:00.364',-0.275,-0.460
'4:00.367',-0.285,-0.465
'4:00.369',-0.285,-0.470
'4:00.372',-0.300,-0.475
'4:00.375',-0.310,-0.470
'4:00.378',-0.325,-0.460
'4:00.381',-0.330,-0.455
'4:00.383',-0.330,-0.450
'4:00.386',-0.330,-0.445
'4:00.389',-0.330,-0.440
'4:00.392',-0.320,-0.425
'4:00.394',-0.325,-0.425
'4:00.397',-0.320,-0.430
'4:00.400',-0.325,-0.435
'4:00.403',-0.330,-0.440
'4:00.406',-0.345,-0.440
'4:00.408',-0.340,-0.435
'4:00.411',-0.350,-0.435
'4:00.414',-0.350,-0.435
'4:00.417',-0.350,-0.425
'4:00.419',-0.335,-0.430
'4:00.422',-0.335,-0.420
'4:00.425',-0.335,-0.410
'4:00.428',-0.335,-0.405
'4:00.431',-0.340,-0.415
'4:00.433',-0.345,-0.415
'4:00.436',-0.350,-0.425
'4:00.439',-0.355,-0.430
'4:00.442',-0.370,-0.435
'4:00.444',-0.375,-0.440
'4:00.447',-0.380,-0.435
'4:00.450',-0.365,-0.420
'4:00.453',-0.370,-0.420
'4:00.456',-0.370,-0.415
'4:00.458',-0.355,-0.400
'4:00.461',-0.360,-0.410
'4:00.464',-0.350,-0.415
'4:00.467',-0.350,-0.410
'4:00.469',-0.365,-0.425
'4:00.472',-0.375,-0.435
'4:00.475',-0.390,-0.420
'4:00.478',-0.390,-0.430
'4:00.481',-0.395,-0.430
'4:00.483',-0.400,-0.410
'4:00.486',-0.390,-0.415
'4:00.489',-0.390,-0.410
'4:00.492',-0.385,-0.400
'4:00.494',-0.380,-0.395
'4:00.497',-0.375,-0.405
'4:00.500',-0.375,-0.400
'4:00.503',-0.380,-0.405
'4:00.506',-0.390,-0.415
'4:00.508',-0.395,-0.420
'4:00.511',-0.405,-0.415
'4:00.514',-0.395,-0.425
'4:00.517',-0.400,-0.410
'4:00.519',-0.390,-0.405
'4:00.522',-0.380,-0.400
'4:00.525',-0.375,-0.395
'4:00.528',-0.370,-0.400
'4:00.531',-0.360,-0.400
'4:00.533',-0.360,-0.400
'4:00.536',-0.360,-0.415
'4:00.539',-0.365,-0.415
'4:00.542',-0.360,-0.420
'4:00.544',-0.370,-0.420
'4:00.547',-0.365,-0.405
'4:00.550',-0.355,-0.395
'4:00.553',-0.350,-0.385
'4:00.556',-0.345,-0.395
'4:00.558',-0.335,-0.380
'4:00.561',-0.345,-0.380
'4:00.564',-0.325,-0.370
'4:00.567',-0.320,-0.370
'4:00.569',-0.305,-0.385
'4:00.572',-0.300,-0.405
'4:00.575',-0.300,-0.420
'4:00.578',-0.310,-0.430
'4:00.581',-0.315,-0.440
'4:00.583',-0.325,-0.445
'4:00.586',-0.335,-0.440
'4:00.589',-0.340,-0.440
'4:00.592',-0.330,-0.430
'4:00.594',-0.340,-0.440
'4:00.597',-0.340,-0.440
'4:00.600',-0.340,-0.445
'4:00.603',-0.355,-0.445
'4:00.606',-0.365,-0.445
'4:00.608',-0.390,-0.450
'4:00.611',-0.385,-0.460
'4:00.614',-0.390,-0.455
'4:00.617',-0.395,-0.440
'4:00.619',-0.400,-0.430
'4:00.622',-0.405,-0.425
'4:00.625',-0.400,-0.400
'4:00.628',-0.420,-0.395
'4:00.631',-0.415,-0.395
'4:00.633',-0.425,-0.385
'4:00.636',-0.430,-0.400
'4:00.639',-0.445,-0.410
'4:00.642',-0.435,-0.420
'4:00.644',-0.440,-0.410
'4:00.647',-0.440,-0.410
'4:00.650',-0.430,-0.405
'4:00.653',-0.425,-0.400
'4:00.656',-0.420,-0.390
'4:00.658',-0.415,-0.385
'4:00.661',-0.415,-0.380
'4:00.664',-0.410,-0.385
'4:00.667',-0.415,-0.385
'4:00.669',-0.420,-0.400
'4:00.672',-0.430,-0.405
'4:00.675',-0.440,-0.410
'4:00.678',-0.445,-0.410
'4:00.681',-0.470,-0.410
'4:00.683',-0.500,-0.410
'4:00.686',-0.510,-0.395
'4:00.689',-0.500,-0.375
'4:00.692',-0.455,-0.360
'4:00.694',-0.380,-0.365
'4:00.697',-0.270,-0.385
'4:00.700',-0.110,-0.425
'4:00.703',0.095,-0.480
'4:00.706',0.325,-0.560
'4:00.708',0.555,-0.650
'4:00.711',0.740,-0.715
'4:00.714',0.840,-0.745
'4:00.717',0.800,-0.730
'4:00.719',0.635,-0.690
'4:00.722',0.370,-0.605
'4:00.725',0.085,-0.495
'4:00.728',-0.170,-0.385
'4:00.731',-0.340,-0.305
'4:00.733',-0.420,-0.255
'4:00.736',-0.410,-0.240
'4:00.739',-0.380,-0.260
'4:00.742',-0.355,-0.320
'4:00.744',-0.330,-0.395
'4:00.747',-0.320,-0.430
'4:00.750',-0.335,-0.460
'4:00.753',-0.345,-0.450
'4:00.756',-0.360,-0.440
'4:00.758',-0.385,-0.400
'4:00.761',-0.385,-0.385
'4:00.764',-0.395,-0.390
'4:00.767',-0.400,-0.395
'4:00.769',-0.410,-0.400
'4:00.772',-0.415,-0.395
'4:00.775',-0.420,-0.405
'4:00.778',-0.420,-0.415
'4:00.781',-0.420,-0.410
'4:00.783',-0.415,-0.405
'4:00.786',-0.420,-0.395
'4:00.789',-0.420,-0.390
'4:00.792',-0.415,-0.380
'4:00.794',-0.405,-0.375
'4:00.797',-0.400,-0.390
'4:00.800',-0.405,-0.385
'4:00.803',-0.405,-0.400
'4:00.806',-0.420,-0.410
'4:00.808',-0.425,-0.410
'4:00.811',-0.425,-0.410
'4:00.814',-0.430,-0.410
'4:00.817',-0.425,-0.405
'4:00.819',-0.410,-0.395
'4:00.822',-0.405,-0.380
'4:00.825',-0.410,-0.385
'4:00.828',-0.410,-0.385
'4:00.831',-0.405,-0.390
'4:00.833',-0.400,-0.385
'4:00.836',-0.405,-0.400
'4:00.839',-0.405,-0.410
'4:00.842',-0.415,-0.410
'4:00.844',-0.415,-0.410
'4:00.847',-0.420,-0.420
'4:00.850',-0.405,-0.410
'4:00.853',-0.405,-0.405
'4:00.856',-0.405,-0.405
'4:00.858',-0.380,-0.410
'4:00.861',-0.380,-0.390
'4:00.864',-0.375,-0.395
'4:00.867',-0.370,-0.410
'4:00.869',-0.385,-0.420
'4:00.872',-0.395,-0.425
'4:00.875',-0.395,-0.430
'4:00.878',-0.400,-0.430
'4:00.881',-0.400,-0.435
'4:00.883',-0.395,-0.425
'4:00.886',-0.390,-0.430
'4:00.889',-0.380,-0.420
'4:00.892',-0.380,-0.400
'4:00.894',-0.375,-0.405
'4:00.897',-0.385,-0.410
'4:00.900',-0.375,-0.425
'4:00.903',-0.370,-0.420
'4:00.906',-0.375,-0.440
'4:00.908',-0.380,-0.455
'4:00.911',-0.385,-0.450
'4:00.914',-0.380,-0.445
'4:00.917',-0.385,-0.445
'4:00.919',-0.380,-0.435
'4:00.922',-0.385,-0.435
'4:00.925',-0.375,-0.430
'4:00.928',-0.375,-0.430
'4:00.931',-0.360,-0.430
'4:00.933',-0.370,-0.425
'4:00.936',-0.365,-0.445
'4:00.939',-0.365,-0.460
'4:00.942',-0.385,-0.455
'4:00.944',-0.370,-0.460
'4:00.947',-0.385,-0.460
'4:00.950',-0.385,-0.460
'4:00.953',-0.370,-0.450
'4:00.956',-0.365,-0.445
'4:00.958',-0.360,-0.430
'4:00.961',-0.345,-0.440
'4:00.964',-0.340,-0.445
'4:00.967',-0.340,-0.455
'4:00.969',-0.340,-0.455
'4:00.972',-0.335,-0.460
'4:00.975',-0.340,-0.485
'4:00.978',-0.320,-0.480
'4:00.981',-0.305,-0.490
'4:00.983',-0.295,-0.475
'4:00.986',-0.290,-0.470
'4:00.989',-0.285,-0.470
'4:00.992',-0.280,-0.470
'4:00.994',-0.275,-0.480
'4:00.997',-0.270,-0.480
'4:01.000',-0.285,-0.475
'4:01.003',-0.280,-0.490
'4:01.006',-0.290,-0.490
'4:01.008',-0.300,-0.495
'4:01.011',-0.305,-0.490
'4:01.014',-0.305,-0.490
'4:01.017',-0.310,-0.465
'4:01.019',-0.315,-0.465
'4:01.022',-0.330,-0.450
'4:01.025',-0.320,-0.445
'4:01.028',-0.315,-0.445
'4:01.031',-0.335,-0.435
'4:01.033',-0.330,-0.440
'4:01.036',-0.345,-0.435
'4:01.039',-0.350,-0.435
'4:01.042',-0.360,-0.455
'4:01.044',-0.375,-0.455
'4:01.047',-0.385,-0.440
'4:01.050',-0.380,-0.425
'4:01.053',-0.390,-0.410
'4:01.056',-0.385,-0.410
'4:01.058',-0.380,-0.395
'4:01.061',-0.370,-0.395
'4:01.064',-0.375,-0.405
'4:01.067',-0.370,-0.400
'4:01.069',-0.380,-0.410
'4:01.072',-0.380,-0.420
'4:01.075',-0.390,-0.415
'4:01.078',-0.390,-0.425
'4:01.081',-0.395,-0.420
'4:01.083',-0.390,-0.410
'4:01.086',-0.395,-0.395
'4:01.089',-0.395,-0.395
'4:01.092',-0.390,-0.380
'4:01.094',-0.375,-0.375
'4:01.097',-0.370,-0.380
'4:01.100',-0.385,-0.380
'4:01.103',-0.395,-0.395
'4:01.106',-0.400,-0.405
'4:01.108',-0.405,-0.400
'4:01.111',-0.405,-0.405
'4:01.114',-0.415,-0.405
'4:01.117',-0.415,-0.400
'4:01.119',-0.415,-0.400
'4:01.122',-0.405,-0.385
'4:01.125',-0.415,-0.385
'4:01.128',-0.410,-0.370
'4:01.131',-0.405,-0.380
'4:01.133',-0.405,-0.380
'4:01.136',-0.405,-0.385
'4:01.139',-0.415,-0.390
'4:01.142',-0.420,-0.385
'4:01.144',-0.425,-0.395
'4:01.147',-0.430,-0.385
'4:01.150',-0.435,-0.390
'4:01.153',-0.430,-0.380
'4:01.156',-0.420,-0.370
'4:01.158',-0.420,-0.375
'4:01.161',-0.410,-0.365
'4:01.164',-0.415,-0.365
'4:01.167',-0.410,-0.385
'4:01.169',-0.415,-0.375
'4:01.172',-0.425,-0.390
'4:01.175',-0.440,-0.405
'4:01.178',-0.440,-0.400
'4:01.181',-0.445,-0.390
'4:01.183',-0.435,-0.385
'4:01.186',-0.425,-0.370
'4:01.189',-0.420,-0.370
'4:01.192',-0.405,-0.360
'4:01.194',-0.395,-0.375
'4:01.197',-0.395,-0.375
'4:01.200',-0.385,-0.370
'4:01.203',-0.385,-0.375
'4:01.206',-0.385,-0.370
'4:01.208',-0.400,-0.375
'4:01.211',-0.400,-0.370
'4:01.214',-0.385,-0.370
'4:01.217',-0.390,-0.365
'4:01.219',-0.370,-0.350
'4:01.222',-0.360,-0.340
'4:01.225',-0.350,-0.325
'4:01.228',-0.335,-0.335
'4:01.231',-0.325,-0.350
'4:01.233',-0.330,-0.365
'4:01.236',-0.345,-0.385
'4:01.239',-0.355,-0.405
'4:01.242',-0.365,-0.420
'4:01.244',-0.395,-0.425
'4:01.247',-0.390,-0.425
'4:01.250',-0.395,-0.425
'4:01.253',-0.390,-0.420
'4:01.256',-0.385,-0.410
'4:01.258',-0.385,-0.400
'4:01.261',-0.385,-0.390
'4:01.264',-0.375,-0.400
'4:01.267',-0.385,-0.395
'4:01.269',-0.400,-0.405
'4:01.272',-0.415,-0.405
'4:01.275',-0.420,-0.415
'4:01.278',-0.435,-0.415
'4:01.281',-0.445,-0.405
'4:01.283',-0.455,-0.395
'4:01.286',-0.455,-0.380
'4:01.289',-0.470,-0.365
'4:01.292',-0.450,-0.360
'4:01.294',-0.455,-0.355
'4:01.297',-0.450,-0.360
'4:01.300',-0.460,-0.365
'4:01.303',-0.455,-0.375
'4:01.306',-0.460,-0.380
'4:01.308',-0.470,-0.385
'4:01.311',-0.465,-0.385
'4:01.314',-0.465,-0.380
'4:01.317',-0.475,-0.385
'4:01.319',-0.465,-0.380
'4:01.322',-0.455,-0.360
'4:01.325',-0.450,-0.360
'4:01.328',-0.460,-0.355
'4:01.331',-0.450,-0.365
'4:01.333',-0.450,-0.365
'4:01.336',-0.470,-0.385
'4:01.339',-0.480,-0.390
'4:01.342',-0.520,-0.390
'4:01.344',-0.540,-0.400
'4:01.347',-0.555,-0.375
'4:01.350',-0.525,-0.365
'4:01.353',-0.470,-0.355
'4:01.356',-0.365,-0.345
'4:01.358',-0.235,-0.380
'4:01.361',-0.050,-0.410
'4:01.364',0.140,-0.465
'4:01.367',0.365,-0.530
'4:01.369',0.575,-0.615
'4:01.372',0.745,-0.680
'4:01.375',0.810,-0.710
'4:01.378',0.730,-0.700
'4:01.381',0.530,-0.645
'4:01.383',0.250,-0.575
'4:01.386',-0.025,-0.465
'4:01.389',-0.260,-0.375
'4:01.392',-0.415,-0.295
'4:01.394',-0.460,-0.240
'4:01.397',-0.450,-0.250
'4:01.400',-0.410,-0.270
'4:01.403',-0.370,-0.325
'4:01.406',-0.350,-0.390
'4:01.408',-0.350,-0.440
'4:01.411',-0.360,-0.455
'4:01.414',-0.370,-0.465
'4:01.417',-0.390,-0.445
'4:01.419',-0.400,-0.415
'4:01.422',-0.410,-0.400
'4:01.425',-0.410,-0.390
'4:01.428',-0.405,-0.390
'4:01.431',-0.410,-0.385
'4:01.433',-0.410,-0.395
'4:01.436',-0.415,-0.390
'4:01.439',-0.420,-0.405
'4:01.442',-0.430,-0.405
'4:01.444',-0.435,-0.410
'4:01.447',-0.440,-0.395
'4:01.450',-0.440,-0.395
'4:01.453',-0.435,-0.390
'4:01.456',-0.430,-0.385
'4:01.458',-0.420,-0.370
'4:01.461',-0.415,-0.375
'4:01.464',-0.410,-0.380
'4:01.467',-0.415,-0.385
'4:01.469',-0.415,-0.395
'4:01.472',-0.420,-0.390
'4:01.475',-0.435,-0.410
'4:01.478',-0.435,-0.405
'4:01.481',-0.435,-0.400
'4:01.483',-0.430,-0.405
'4:01.486',-0.420,-0.400
'4:01.489',-0.420,-0.380
'4:01.492',-0.415,-0.385
'4:01.494',-0.415,-0.390
'4:01.497',-0.405,-0.390
'4:01.500',-0.405,-0.390
'4:01.503',-0.410,-0.390
'4:01.506',-0.415,-0.410
'4:01.508',-0.415,-0.405
'4:01.511',-0.410,-0.410
'4:01.514',-0.415,-0.410
'4:01.517',-0.415,-0.410
'4:01.519',-0.410,-0.400
'4:01.522',-0.405,-0.395
'4:01.525',-0.395,-0.390
'4:01.528',-0.400,-0.390
'4:01.531',-0.395,-0.390
'4:01.533',-0.385,-0.405
'4:01.536',-0.390,-0.415
'4:01.539',-0.380,-0.410
'4:01.542',-0.385,-0.430
'4:01.544',-0.395,-0.430
'4:01.547',-0.405,-0.425
'4:01.550',-0.405,-0.415
'4:01.553',-0.395,-0.415
'4:01.556',-0.385,-0.405
'4:01.558',-0.380,-0.405
'4:01.561',-0.370,-0.410
'4:01.564',-0.365,-0.415
'4:01.567',-0.365,-0.420
'4:01.569',-0.360,-0.425
'4:01.572',-0.365,-0.425
'4:01.575',-0.370,-0.435
'4:01.578',-0.375,-0.450
'4:01.581',-0.375,-0.440
'4:01.583',-0.380,-0.455
'4:01.586',-0.365,-0.440
'4:01.589',-0.355,-0.440
'4:01.592',-0.355,-0.430
'4:01.594',-0.350,-0.435
'4:01.597',-0.350,-0.430
'4:01.600',-0.355,-0.435
'4:01.603',-0.350,-0.445
'4:01.606',-0.360,-0.465
'4:01.608',-0.370,-0.465
'4:01.611',-0.365,-0.470
'4:01.614',-0.375,-0.465
'4:01.617',-0.375,-0.470
'4:01.619',-0.365,-0.455
'4:01.622',-0.365,-0.450
'4:01.625',-0.350,-0.450
'4:01.628',-0.330,-0.445
'4:01.631',-0.340,-0.460
'4:01.633',-0.330,-0.455
'4:01.636',-0.320,-0.460
'4:01.639',-0.325,-0.480
'4:01.642',-0.325,-0.485
'4:01.644',-0.320,-0.490
'4:01.647',-0.315,-0.490
'4:01.650',-0.315,-0.480
'4:01.653',-0.295,-0.485
'4:01.656',-0.290,-0.485
'4:01.658',-0.275,-0.470
'4:01.661',-0.275,-0.475
'4:01.664',-0.275,-0.480
'4:01.667',-0.270,-0.475
'4:01.669',-0.270,-0.490
'4:01.672',-0.290,-0.495
'4:01.675',-0.285,-0.495
'4:01.678',-0.300,-0.500
'4:01.681',-0.310,-0.485
'4:01.683',-0.300,-0.490
'4:01.686',-0.310,-0.485
'4:01.689',-0.310,-0.465
'4:01.692',-0.310,-0.450
'4:01.694',-0.310,-0.455
'4:01.697',-0.315,-0.460
'4:01.700',-0.330,-0.450
'4:01.703',-0.335,-0.450
'4:01.706',-0.355,-0.455
'4:01.708',-0.365,-0.460
'4:01.711',-0.365,-0.460
'4:01.714',-0.380,-0.450
'4:01.717',-0.380,-0.450
'4:01.719',-0.375,-0.440
'4:01.722',-0.375,-0.430
'4:01.725',-0.380,-0.430
'4:01.728',-0.370,-0.425
'4:01.731',-0.375,-0.420
'4:01.733',-0.370,-0.420
'4:01.736',-0.370,-0.430
'4:01.739',-0.380,-0.440
'4:01.742',-0.390,-0.440
'4:01.744',-0.400,-0.450
'4:01.747',-0.405,-0.440
'4:01.750',-0.415,-0.435
'4:01.753',-0.410,-0.425
'4:01.756',-0.400,-0.420
'4:01.758',-0.400,-0.415
'4:01.761',-0.390,-0.400
'4:01.764',-0.400,-0.415
'4:01.767',-0.395,-0.415
'4:01.769',-0.400,-0.425
'4:01.772',-0.400,-0.430
'4:01.775',-0.415,-0.425
'4:01.778',-0.415,-0.435
'4:01.781',-0.415,-0.430
'4:01.783',-0.435,-0.430
'4:01.786',-0.425,-0.420
'4:01.789',-0.400,-0.425
'4:01.792',-0.400,-0.425
'4:01.794',-0.395,-0.415
'4:01.797',-0.400,-0.415
'4:01.800',-0.400,-0.405
'4:01.803',-0.410,-0.415
'4:01.806',-0.405,-0.420
'4:01.808',-0.420,-0.430
'4:01.811',-0.425,-0.430
'4:01.814',-0.430,-0.430
'4:01.817',-0.435,-0.420
'4:01.819',-0.430,-0.415
'4:01.822',-0.430,-0.405
'4:01.825',-0.425,-0.405
'4:01.828',-0.420,-0.405
'4:01.831',-0.420,-0.400
'4:01.833',-0.420,-0.400
'4:01.836',-0.425,-0.410
'4:01.839',-0.435,-0.410
'4:01.842',-0.445,-0.420
'4:01.844',-0.445,-0.420
'4:01.847',-0.440,-0.425
'4:01.850',-0.445,-0.420
'4:01.853',-0.440,-0.410
'4:01.856',-0.435,-0.405
'4:01.858',-0.420,-0.400
'4:01.861',-0.410,-0.395
'4:01.864',-0.410,-0.395
'4:01.867',-0.400,-0.410
'4:01.869',-0.400,-0.415
'4:01.872',-0.400,-0.410
'4:01.875',-0.405,-0.410
'4:01.878',-0.405,-0.420
'4:01.881',-0.400,-0.410
'4:01.883',-0.400,-0.405
'4:01.886',-0.395,-0.395
'4:01.889',-0.375,-0.380
'4:01.892',-0.375,-0.375
'4:01.894',-0.365,-0.365
'4:01.897',-0.365,-0.365
'4:01.900',-0.345,-0.375
'4:01.903',-0.340,-0.385
'4:01.906',-0.340,-0.395
'4:01.908',-0.340,-0.420
'4:01.911',-0.360,-0.445
'4:01.914',-0.365,-0.455
'4:01.917',-0.380,-0.445
'4:01.919',-0.385,-0.445
'4:01.922',-0.390,-0.450
'4:01.925',-0.395,-0.440
'4:01.928',-0.385,-0.450
'4:01.931',-0.385,-0.445
'4:01.933',-0.395,-0.440
'4:01.936',-0.400,-0.445
'4:01.939',-0.405,-0.450
'4:01.942',-0.410,-0.450
'4:01.944',-0.420,-0.460
'4:01.947',-0.425,-0.455
'4:01.950',-0.435,-0.445
'4:01.953',-0.430,-0.435
'4:01.956',-0.435,-0.415
'4:01.958',-0.450,-0.400
'4:01.961',-0.455,-0.395
'4:01.964',-0.460,-0.390
'4:01.967',-0.455,-0.390
'4:01.969',-0.455,-0.400
'4:01.972',-0.470,-0.410
'4:01.975',-0.470,-0.410
'4:01.978',-0.470,-0.415
'4:01.981',-0.475,-0.410
'4:01.983',-0.470,-0.410
'4:01.986',-0.475,-0.405
'4:01.989',-0.465,-0.405
'4:01.992',-0.455,-0.390
'4:01.994',-0.450,-0.380
'4:01.997',-0.445,-0.390
'4:02.000',-0.440,-0.395
'4:02.003',-0.450,-0.405
'4:02.006',-0.455,-0.410
'4:02.008',-0.455,-0.415
'4:02.011',-0.465,-0.420
'4:02.014',-0.485,-0.415
'4:02.017',-0.510,-0.405
'4:02.019',-0.515,-0.390
'4:02.022',-0.515,-0.370
'4:02.025',-0.490,-0.365
'4:02.028',-0.430,-0.350
'4:02.031',-0.340,-0.355
'4:02.033',-0.220,-0.395
'4:02.036',-0.075,-0.440
'4:02.039',0.100,-0.505
'4:02.042',0.280,-0.580
'4:02.044',0.465,-0.655
'4:02.047',0.605,-0.710
'4:02.050',0.705,-0.730
'4:02.053',0.680,-0.730
'4:02.056',0.550,-0.695
'4:02.058',0.330,-0.630
'4:02.061',0.080,-0.550
'4:02.064',-0.165,-0.460
'4:02.067',-0.340,-0.380
'4:02.069',-0.425,-0.325
'4:02.072',-0.440,-0.300
'4:02.075',-0.405,-0.325
'4:02.078',-0.375,-0.375
'4:02.081',-0.345,-0.440
'4:02.083',-0.335,-0.485
'4:02.086',-0.340,-0.490
'4:02.089',-0.335,-0.480
'4:02.092',-0.355,-0.455
'4:02.094',-0.370,-0.430
'4:02.097',-0.395,-0.420
'4:02.100',-0.410,-0.410
'4:02.103',-0.415,-0.415
'4:02.106',-0.425,-0.425
'4:02.108',-0.435,-0.440
'4:02.111',-0.440,-0.425
'4:02.114',-0.450,-0.430
'4:02.117',-0.450,-0.425
'4:02.119',-0.445,-0.410
'4:02.122',-0.440,-0.405
'4:02.125',-0.430,-0.395
'4:02.128',-0.420,-0.395
'4:02.131',-0.420,-0.400
'4:02.133',-0.410,-0.400
'4:02.136',-0.420,-0.410
'4:02.139',-0.425,-0.415
'4:02.142',-0.430,-0.425
'4:02.144',-0.430,-0.425
'4:02.147',-0.425,-0.425
'4:02.150',-0.430,-0.420
'4:02.153',-0.415,-0.415
'4:02.156',-0.405,-0.405
'4:02.158',-0.405,-0.400
'4:02.161',-0.405,-0.385
'4:02.164',-0.395,-0.395
'4:02.167',-0.400,-0.405
'4:02.169',-0.395,-0.410
'4:02.172',-0.410,-0.420
'4:02.175',-0.410,-0.425
'4:02.178',-0.415,-0.430
'4:02.181',-0.420,-0.430
'4:02.183',-0.415,-0.425
'4:02.186',-0.405,-0.410
'4:02.189',-0.405,-0.415
'4:02.192',-0.395,-0.405
'4:02.194',-0.390,-0.405
'4:02.197',-0.390,-0.400
'4:02.200',-0.375,-0.405
'4:02.203',-0.375,-0.420
'4:02.206',-0.385,-0.425
'4:02.208',-0.395,-0.430
'4:02.211',-0.390,-0.445
'4:02.214',-0.390,-0.440
'4:02.217',-0.395,-0.435
'4:02.219',-0.390,-0.425
'4:02.222',-0.385,-0.425
'4:02.225',-0.375,-0.415
'4:02.228',-0.365,-0.420
'4:02.231',-0.365,-0.425
'4:02.233',-0.370,-0.425
'4:02.236',-0.365,-0.430
'4:02.239',-0.360,-0.440
'4:02.242',-0.370,-0.440
'4:02.244',-0.380,-0.460
'4:02.247',-0.385,-0.450
'4:02.250',-0.380,-0.445
'4:02.253',-0.365,-0.445
'4:02.256',-0.360,-0.435
'4:02.258',-0.360,-0.440
'4:02.261',-0.350,-0.430
'4:02.264',-0.340,-0.435
'4:02.267',-0.345,-0.435
'4:02.269',-0.340,-0.455
'4:02.272',-0.350,-0.455
'4:02.275',-0.350,-0.455
'4:02.278',-0.355,-0.470
'4:02.281',-0.365,-0.465
'4:02.283',-0.365,-0.460
'4:02.286',-0.365,-0.470
'4:02.289',-0.360,-0.450
'4:02.292',-0.345,-0.445
'4:02.294',-0.335,-0.450
'4:02.297',-0.340,-0.460
'4:02.300',-0.330,-0.460
'4:02.303',-0.340,-0.460
'4:02.306',-0.340,-0.475
'4:02.308',-0.345,-0.475
'4:02.311',-0.345,-0.480
'4:02.314',-0.350,-0.485
'4:02.317',-0.350,-0.480
'4:02.319',-0.330,-0.475
'4:02.322',-0.325,-0.465
'4:02.325',-0.320,-0.465
'4:02.328',-0.310,-0.470
'4:02.331',-0.295,-0.480
'4:02.333',-0.300,-0.485
'4:02.336',-0.290,-0.495
'4:02.339',-0.295,-0.505
'4:02.342',-0.285,-0.510
'4:02.344',-0.295,-0.515
'4:02.347',-0.290,-0.510
'4:02.350',-0.285,-0.515
'4:02.353',-0.280,-0.495
'4:02.356',-0.270,-0.500
'4:02.358',-0.265,-0.495
'4:02.361',-0.260,-0.495
'4:02.364',-0.265,-0.495
'4:02.367',-0.270,-0.495
'4:02.369',-0.270,-0.505
'4:02.372',-0.290,-0.500
'4:02.375',-0.285,-0.510
'4:02.378',-0.305,-0.510
'4:02.381',-0.310,-0.505
'4:02.383',-0.320,-0.490
'4:02.386',-0.320,-0.490
'4:02.389',-0.315,-0.480
'4:02.392',-0.320,-0.465
'4:02.394',-0.320,-0.460
'4:02.397',-0.325,-0.450
'4:02.400',-0.325,-0.455
'4:02.403',-0.350,-0.455
'4:02.406',-0.355,-0.465
'4:02.408',-0.360,-0.465
'4:02.411',-0.365,-0.460
'4:02.414',-0.375,-0.450
'4:02.417',-0.385,-0.445
'4:02.419',-0.380,-0.440
'4:02.422',-0.370,-0.435
'4:02.425',-0.375,-0.425
'4:02.428',-0.365,-0.420
'4:02.431',-0.370,-0.425
'4:02.433',-0.370,-0.410
'4:02.436',-0.380,-0.425
'4:02.439',-0.390,-0.435
'4:02.442',-0.390,-0.445
'4:02.444',-0.400,-0.440
'4:02.447',-0.405,-0.450
'4:02.450',-0.400,-0.435
'4:02.453',-0.410,-0.435
'4:02.456',-0.400,-0.420
'4:02.458',-0.400,-0.420
'4:02.461',-0.390,-0.410
'4:02.464',-0.385,-0.420
'4:02.467',-0.390,-0.415
'4:02.469',-0.390,-0.425
'4:02.472',-0.395,-0.430
'4:02.475',-0.395,-0.445
'4:02.478',-0.400,-0.440
'4:02.481',-0.405,-0.440
'4:02.483',-0.410,-0.425
'4:02.486',-0.405,-0.420
'4:02.489',-0.400,-0.410
'4:02.492',-0.405,-0.400
'4:02.494',-0.390,-0.395
'4:02.497',-0.395,-0.405
'4:02.500',-0.385,-0.405
'4:02.503',-0.395,-0.410
'4:02.506',-0.410,-0.420
'4:02.508',-0.415,-0.415
'4:02.511',-0.420,-0.425
'4:02.514',-0.415,-0.415
'4:02.517',-0.425,-0.415
'4:02.519',-0.415,-0.415
'4:02.522',-0.420,-0.405
'4:02.525',-0.415,-0.390
'4:02.528',-0.405,-0.395
'4:02.531',-0.400,-0.405
'4:02.533',-0.395,-0.405
'4:02.536',-0.410,-0.405
'4:02.539',-0.415,-0.420
'4:02.542',-0.415,-0.420
'4:02.544',-0.420,-0.415
'4:02.547',-0.430,-0.420
'4:02.550',-0.420,-0.415
'4:02.553',-0.410,-0.405
'4:02.556',-0.390,-0.400
'4:02.558',-0.390,-0.395
'4:02.561',-0.370,-0.385
'4:02.564',-0.355,-0.400
'4:02.567',-0.345,-0.385
'4:02.569',-0.355,-0.395
'4:02.572',-0.360,-0.410
'4:02.575',-0.360,-0.405
'4:02.578',-0.370,-0.400
'4:02.581',-0.370,-0.400
'4:02.583',-0.365,-0.395
'4:02.586',-0.335,-0.390
'4:02.589',-0.320,-0.395
'4:02.592',-0.310,-0.410
'4:02.594',-0.325,-0.410
'4:02.597',-0.325,-0.440
'4:02.600',-0.335,-0.450
'4:02.603',-0.350,-0.450
'4:02.606',-0.375,-0.465
'4:02.608',-0.385,-0.470
'4:02.611',-0.390,-0.475
'4:02.614',-0.400,-0.455
'4:02.617',-0.390,-0.450
'4:02.619',-0.400,-0.450
'4:02.622',-0.395,-0.440
'4:02.625',-0.395,-0.435
'4:02.628',-0.385,-0.420
'4:02.631',-0.395,-0.420
'4:02.633',-0.410,-0.420
'4:02.636',-0.425,-0.415
'4:02.639',-0.440,-0.420
'4:02.642',-0.455,-0.420
'4:02.644',-0.465,-0.410
'4:02.647',-0.465,-0.410
'4:02.650',-0.475,-0.410
'4:02.653',-0.465,-0.400
'4:02.656',-0.450,-0.400
'4:02.658',-0.445,-0.385
'4:02.661',-0.445,-0.390
'4:02.664',-0.440,-0.390
'4:02.667',-0.445,-0.390
'4:02.669',-0.440,-0.400
'4:02.672',-0.450,-0.400
'4:02.675',-0.445,-0.410
'4:02.678',-0.445,-0.420
'4:02.681',-0.450,-0.410
'4:02.683',-0.465,-0.410
'4:02.686',-0.470,-0.410
'4:02.689',-0.475,-0.390
'4:02.692',-0.485,-0.390
'4:02.694',-0.490,-0.375
'4:02.697',-0.485,-0.380
'4:02.700',-0.475,-0.370
'4:02.703',-0.430,-0.365
'4:02.706',-0.350,-0.375
'4:02.708',-0.245,-0.405
'4:02.711',-0.095,-0.450
'4:02.714',0.100,-0.510
'4:02.717',0.300,-0.590
'4:02.719',0.510,-0.665
'4:02.722',0.665,-0.715
'4:02.725',0.735,-0.740
'4:02.728',0.670,-0.720
'4:02.731',0.490,-0.680
'4:02.733',0.225,-0.595
'4:02.736',-0.050,-0.510
'4:02.739',-0.280,-0.405
'4:02.742',-0.425,-0.330
'4:02.744',-0.460,-0.305
'4:02.747',-0.435,-0.305
'4:02.750',-0.390,-0.340
'4:02.753',-0.335,-0.405
'4:02.756',-0.305,-0.450
'4:02.758',-0.300,-0.465
'4:02.761',-0.310,-0.465
'4:02.764',-0.340,-0.450
'4:02.767',-0.370,-0.430
'4:02.769',-0.380,-0.420
'4:02.772',-0.410,-0.415
'4:02.775',-0.415,-0.425
'4:02.778',-0.425,-0.415
'4:02.781',-0.415,-0.425
'4:02.783',-0.425,-0.405
'4:02.786',-0.420,-0.405
'4:02.789',-0.415,-0.390
'4:02.792',-0.410,-0.385
'4:02.794',-0.410,-0.380
'4:02.797',-0.415,-0.390
'4:02.800',-0.410,-0.400
'4:02.803',-0.405,-0.405
'4:02.806',-0.420,-0.410
'4:02.808',-0.425,-0.415
'4:02.811',-0.430,-0.410
'4:02.814',-0.420,-0.410
'4:02.817',-0.425,-0.410
'4:02.819',-0.430,-0.410
'4:02.822',-0.415,-0.405
'4:02.825',-0.420,-0.395
'4:02.828',-0.400,-0.395
'4:02.831',-0.395,-0.400
'4:02.833',-0.395,-0.400
'4:02.836',-0.400,-0.420
'4:02.839',-0.405,-0.415
'4:02.842',-0.400,-0.420
'4:02.844',-0.410,-0.420
'4:02.847',-0.405,-0.415
'4:02.850',-0.405,-0.415
'4:02.853',-0.400,-0.400
'4:02.856',-0.390,-0.400
'4:02.858',-0.390,-0.400
'4:02.861',-0.370,-0.390
'4:02.864',-0.365,-0.405
'4:02.867',-0.360,-0.410
'4:02.869',-0.380,-0.410
'4:02.872',-0.375,-0.425
'4:02.875',-0.385,-0.425
'4:02.878',-0.375,-0.435
'4:02.881',-0.380,-0.430
'4:02.883',-0.385,-0.435
'4:02.886',-0.380,-0.430
'4:02.889',-0.370,-0.415
'4:02.892',-0.360,-0.420
'4:02.894',-0.355,-0.420
'4:02.897',-0.355,-0.425
'4:02.900',-0.345,-0.425
'4:02.903',-0.355,-0.430
'4:02.906',-0.350,-0.445
'4:02.908',-0.360,-0.445
'4:02.911',-0.360,-0.445
'4:02.914',-0.365,-0.460
'4:02.917',-0.375,-0.450
'4:02.919',-0.365,-0.445
'4:02.922',-0.360,-0.435
'4:02.925',-0.345,-0.435
'4:02.928',-0.335,-0.435
'4:02.931',-0.330,-0.445
'4:02.933',-0.330,-0.435
'4:02.936',-0.335,-0.455
'4:02.939',-0.340,-0.450
'4:02.942',-0.345,-0.470
'4:02.944',-0.350,-0.460
'4:02.947',-0.355,-0.470
'4:02.950',-0.350,-0.465
'4:02.953',-0.345,-0.465
'4:02.956',-0.345,-0.455
'4:02.958',-0.335,-0.455
'4:02.961',-0.325,-0.440
'4:02.964',-0.335,-0.460
'4:02.967',-0.325,-0.455
'4:02.969',-0.340,-0.470
'4:02.972',-0.330,-0.480
'4:02.975',-0.340,-0.475
'4:02.978',-0.340,-0.490
'4:02.981',-0.335,-0.480
'4:02.983',-0.330,-0.485
'4:02.986',-0.325,-0.485
'4:02.989',-0.315,-0.475
'4:02.992',-0.300,-0.480
'4:02.994',-0.290,-0.480
'4:02.997',-0.285,-0.485
'4:03.000',-0.275,-0.495
'4:03.003',-0.275,-0.505
'4:03.006',-0.275,-0.520
'4:03.008',-0.275,-0.530
'4:03.011',-0.275,-0.525
'4:03.014',-0.270,-0.520
'4:03.017',-0.275,-0.520
'4:03.019',-0.265,-0.530
'4:03.022',-0.270,-0.510
'4:03.025',-0.265,-0.505
'4:03.028',-0.260,-0.505
'4:03.031',-0.255,-0.505
'4:03.033',-0.250,-0.505
'4:03.036',-0.260,-0.510
'4:03.039',-0.285,-0.515
'4:03.042',-0.285,-0.515
'4:03.044',-0.295,-0.525
'4:03.047',-0.320,-0.510
'4:03.050',-0.325,-0.510
'4:03.053',-0.320,-0.495
'4:03.056',-0.320,-0.485
'4:03.058',-0.330,-0.475
'4:03.061',-0.315,-0.470
'4:03.064',-0.320,-0.470
'4:03.067',-0.325,-0.465
'4:03.069',-0.330,-0.470
'4:03.072',-0.345,-0.475
'4:03.075',-0.340,-0.485
'4:03.078',-0.360,-0.490
'4:03.081',-0.355,-0.470
'4:03.083',-0.370,-0.475
'4:03.086',-0.360,-0.465
'4:03.089',-0.360,-0.455
'4:03.092',-0.360,-0.445
'4:03.094',-0.360,-0.435
'4:03.097',-0.365,-0.435
'4:03.100',-0.355,-0.435
'4:03.103',-0.360,-0.450
'4:03.106',-0.375,-0.450
'4:03.108',-0.375,-0.445
'4:03.111',-0.380,-0.465
'4:03.114',-0.375,-0.460
'4:03.117',-0.380,-0.450
'4:03.119',-0.385,-0.450
'4:03.122',-0.375,-0.435
'4:03.125',-0.385,-0.430
'4:03.128',-0.370,-0.420
'4:03.131',-0.375,-0.430
'4:03.133',-0.370,-0.440
'4:03.136',-0.370,-0.435
'4:03.139',-0.385,-0.450
'4:03.142',-0.385,-0.455
'4:03.144',-0.400,-0.460
'4:03.147',-0.400,-0.455
'4:03.150',-0.410,-0.440
'4:03.153',-0.405,-0.440
'4:03.156',-0.400,-0.440
'4:03.158',-0.385,-0.435
'4:03.161',-0.385,-0.430
'4:03.164',-0.385,-0.435
'4:03.167',-0.385,-0.425
'4:03.169',-0.395,-0.435
'4:03.172',-0.390,-0.450
'4:03.175',-0.415,-0.455
'4:03.178',-0.410,-0.450
'4:03.181',-0.405,-0.445
'4:03.183',-0.415,-0.430
'4:03.186',-0.405,-0.430
'4:03.189',-0.405,-0.430
'4:03.192',-0.405,-0.425
'4:03.194',-0.390,-0.430
'4:03.197',-0.390,-0.435
'4:03.200',-0.390,-0.430
'4:03.203',-0.400,-0.440
'4:03.206',-0.410,-0.440
'4:03.208',-0.415,-0.440
'4:03.211',-0.415,-0.450
'4:03.214',-0.415,-0.440
'4:03.217',-0.410,-0.435
'4:03.219',-0.410,-0.440
'4:03.222',-0.400,-0.445
'4:03.225',-0.390,-0.415
'4:03.228',-0.380,-0.420
'4:03.231',-0.370,-0.410
'4:03.233',-0.355,-0.420
'4:03.236',-0.355,-0.425
'4:03.239',-0.365,-0.435
'4:03.242',-0.365,-0.440
'4:03.244',-0.365,-0.440
'4:03.247',-0.370,-0.430
'4:03.250',-0.380,-0.420
'4:03.253',-0.365,-0.420
'4:03.256',-0.365,-0.415
'4:03.258',-0.350,-0.405
'4:03.261',-0.320,-0.415
'4:03.264',-0.300,-0.410
'4:03.267',-0.290,-0.440
'4:03.269',-0.300,-0.460
'4:03.272',-0.320,-0.480
'4:03.275',-0.345,-0.500
'4:03.278',-0.370,-0.510
'4:03.281',-0.380,-0.505
'4:03.283',-0.380,-0.500
'4:03.286',-0.380,-0.495
'4:03.289',-0.380,-0.485
'4:03.292',-0.365,-0.475
'4:03.294',-0.365,-0.465
'4:03.297',-0.365,-0.465
'4:03.300',-0.370,-0.475
'4:03.303',-0.375,-0.480
'4:03.306',-0.390,-0.485
'4:03.308',-0.395,-0.490
'4:03.311',-0.415,-0.490
'4:03.314',-0.425,-0.475
'4:03.317',-0.445,-0.455
'4:03.319',-0.445,-0.455
'4:03.322',-0.450,-0.440
'4:03.325',-0.450,-0.440
'4:03.328',-0.440,-0.420
'4:03.331',-0.440,-0.415
'4:03.333',-0.435,-0.425
'4:03.336',-0.435,-0.435
'4:03.339',-0.440,-0.435
'4:03.342',-0.445,-0.455
'4:03.344',-0.455,-0.450
'4:03.347',-0.455,-0.445
'4:03.350',-0.460,-0.465
'4:03.353',-0.450,-0.440
'4:03.356',-0.445,-0.435
'4:03.358',-0.445,-0.440
'4:03.361',-0.435,-0.425
'4:03.364',-0.445,-0.420
'4:03.367',-0.435,-0.425
'4:03.369',-0.445,-0.435
'4:03.372',-0.465,-0.450
'4:03.375',-0.500,-0.445
'4:03.378',-0.515,-0.455
'4:03.381',-0.510,-0.440
'4:03.383',-0.470,-0.430
'4:03.386',-0.380,-0.420
'4:03.389',-0.265,-0.435
'4:03.392',-0.120,-0.470
'4:03.394',0.045,-0.510
'4:03.397',0.260,-0.585
'4:03.400',0.475,-0.685
'4:03.403',0.650,-0.765
'4:03.406',0.745,-0.810
'4:03.408',0.715,-0.825
'4:03.411',0.540,-0.790
'4:03.414',0.280,-0.715
'4:03.417',-0.010,-0.610
'4:03.419',-0.250,-0.500
'4:03.422',-0.400,-0.380
'4:03.425',-0.460,-0.325
'4:03.428',-0.430,-0.305
'4:03.431',-0.365,-0.345
'4:03.433',-0.320,-0.415
'4:03.436',-0.295,-0.480
'4:03.439',-0.295,-0.520
'4:03.442',-0.315,-0.530
'4:03.444',-0.350,-0.535
'4:03.447',-0.380,-0.505
'4:03.450',-0.400,-0.485
'4:03.453',-0.425,-0.465
'4:03.456',-0.415,-0.445
'4:03.458',-0.410,-0.440
'4:03.461',-0.405,-0.440
'4:03.464',-0.395,-0.440
'4:03.467',-0.400,-0.445
'4:03.469',-0.400,-0.445
'4:03.472',-0.400,-0.455
'4:03.475',-0.405,-0.460
'4:03.478',-0.410,-0.470
'4:03.481',-0.420,-0.455
'4:03.483',-0.415,-0.455
'4:03.486',-0.410,-0.465
'4:03.489',-0.395,-0.445
'4:03.492',-0.395,-0.445
'4:03.494',-0.395,-0.435
'4:03.497',-0.395,-0.430
'4:03.500',-0.385,-0.435
'4:03.503',-0.390,-0.435
'4:03.506',-0.395,-0.455
'4:03.508',-0.405,-0.465
'4:03.511',-0.405,-0.465
'4:03.514',-0.405,-0.465
'4:03.517',-0.415,-0.465
'4:03.519',-0.400,-0.465
'4:03.522',-0.390,-0.460
'4:03.525',-0.385,-0.445
'4:03.528',-0.375,-0.445
'4:03.531',-0.370,-0.445
'4:03.533',-0.375,-0.450
'4:03.536',-0.375,-0.455
'4:03.539',-0.370,-0.455
'4:03.542',-0.370,-0.475
'4:03.544',-0.375,-0.485
'4:03.547',-0.375,-0.475
'4:03.550',-0.380,-0.465
'4:03.553',-0.370,-0.465
'4:03.556',-0.370,-0.460
'4:03.558',-0.365,-0.460
'4:03.561',-0.365,-0.455
'4:03.564',-0.360,-0.450
'4:03.567',-0.355,-0.460
'4:03.569',-0.355,-0.470
'4:03.572',-0.365,-0.480
'4:03.575',-0.375,-0.475
'4:03.578',-0.375,-0.495
'4:03.581',-0.380,-0.485
'4:03.583',-0.395,-0.490
'4:03.586',-0.380,-0.490
'4:03.589',-0.365,-0.470
'4:03.592',-0.375,-0.470
'4:03.594',-0.360,-0.465
'4:03.597',-0.340,-0.480
'4:03.600',-0.340,-0.475
'4:03.603',-0.325,-0.480
'4:03.606',-0.335,-0.490
'4:03.608',-0.335,-0.510
'4:03.611',-0.340,-0.505
'4:03.614',-0.355,-0.495
'4:03.617',-0.355,-0.510
'4:03.619',-0.355,-0.505
'4:03.622',-0.350,-0.505
'4:03.625',-0.350,-0.490
'4:03.628',-0.345,-0.490
'4:03.631',-0.335,-0.490
'4:03.633',-0.330,-0.490
'4:03.636',-0.335,-0.510
'4:03.639',-0.335,-0.510
'4:03.642',-0.330,-0.510
'4:03.644',-0.335,-0.525
'4:03.647',-0.340,-0.515
'4:03.650',-0.340,-0.520
'4:03.653',-0.330,-0.515
'4:03.656',-0.325,-0.515
'4:03.658',-0.320,-0.505
'4:03.661',-0.305,-0.500
'4:03.664',-0.300,-0.500
'4:03.667',-0.290,-0.520
'4:03.669',-0.290,-0.530
'4:03.672',-0.285,-0.530
'4:03.675',-0.285,-0.545
'4:03.678',-0.280,-0.555
'4:03.681',-0.280,-0.555
'4:03.683',-0.270,-0.545
'4:03.686',-0.265,-0.550
'4:03.689',-0.265,-0.550
'4:03.692',-0.265,-0.545
'4:03.694',-0.255,-0.540
'4:03.697',-0.240,-0.545
'4:03.700',-0.250,-0.545
'4:03.703',-0.255,-0.545
'4:03.706',-0.260,-0.555
'4:03.708',-0.265,-0.555
'4:03.711',-0.285,-0.555
'4:03.714',-0.290,-0.550
'4:03.717',-0.300,-0.540
'4:03.719',-0.310,-0.535
'4:03.722',-0.300,-0.525
'4:03.725',-0.310,-0.515
'4:03.728',-0.320,-0.505
'4:03.731',-0.320,-0.505
'4:03.733',-0.315,-0.510
'4:03.736',-0.325,-0.510
'4:03.739',-0.335,-0.515
'4:03.742',-0.350,-0.525
'4:03.744',-0.360,-0.510
'4:03.747',-0.370,-0.505
'4:03.750',-0.375,-0.500
'4:03.753',-0.370,-0.490
'4:03.756',-0.375,-0.490
'4:03.758',-0.375,-0.465
'4:03.761',-0.360,-0.475
'4:03.764',-0.365,-0.475
'4:03.767',-0.360,-0.455
'4:03.769',-0.365,-0.465
'4:03.772',-0.375,-0.485
'4:03.775',-0.390,-0.490
'4:03.778',-0.395,-0.485
'4:03.781',-0.395,-0.480
'4:03.783',-0.405,-0.485
'4:03.786',-0.405,-0.490
'4:03.789',-0.410,-0.470
'4:03.792',-0.405,-0.460
'4:03.794',-0.400,-0.460
'4:03.797',-0.385,-0.465
'4:03.800',-0.395,-0.465
'4:03.803',-0.395,-0.475
'4:03.806',-0.405,-0.475
'4:03.808',-0.400,-0.485
'4:03.811',-0.400,-0.485
'4:03.814',-0.395,-0.485
'4:03.817',-0.405,-0.485
'4:03.819',-0.400,-0.475
'4:03.822',-0.395,-0.465
'4:03.825',-0.395,-0.460
'4:03.828',-0.385,-0.455
'4:03.831',-0.385,-0.445
'4:03.833',-0.390,-0.465
'4:03.836',-0.390,-0.455
'4:03.839',-0.400,-0.470
'4:03.842',-0.405,-0.480
'4:03.844',-0.420,-0.470
'4:03.847',-0.425,-0.475
'4:03.850',-0.425,-0.485
'4:03.853',-0.425,-0.470
'4:03.856',-0.425,-0.470
'4:03.858',-0.420,-0.450
'4:03.861',-0.410,-0.450
'4:03.864',-0.405,-0.460
'4:03.867',-0.400,-0.455
'4:03.869',-0.400,-0.460
'4:03.872',-0.410,-0.460
'4:03.875',-0.410,-0.465
'4:03.878',-0.415,-0.460
'4:03.881',-0.420,-0.485
'4:03.883',-0.415,-0.470
'4:03.886',-0.400,-0.465
'4:03.889',-0.385,-0.465
'4:03.892',-0.370,-0.435
'4:03.894',-0.360,-0.435
'4:03.897',-0.355,-0.425
'4:03.900',-0.350,-0.425
'4:03.903',-0.365,-0.425
'4:03.906',-0.370,-0.440
'4:03.908',-0.380,-0.445
'4:03.911',-0.370,-0.435
'4:03.914',-0.365,-0.440
'4:03.917',-0.345,-0.445
'4:03.919',-0.330,-0.445
'4:03.922',-0.315,-0.460
'4:03.925',-0.315,-0.455
'4:03.928',-0.315,-0.480
'4:03.931',-0.335,-0.480
'4:03.933',-0.360,-0.500
'4:03.936',-0.370,-0.505
'4:03.939',-0.370,-0.520
'4:03.942',-0.370,-0.515
'4:03.944',-0.380,-0.505
'4:03.947',-0.385,-0.505
'4:03.950',-0.395,-0.495
'4:03.953',-0.390,-0.480
'4:03.956',-0.395,-0.480
'4:03.958',-0.405,-0.475
'4:03.961',-0.395,-0.465
'4:03.964',-0.405,-0.465
'4:03.967',-0.410,-0.455
'4:03.969',-0.430,-0.465
'4:03.972',-0.445,-0.460
'4:03.975',-0.445,-0.460
'4:03.978',-0.455,-0.470
'4:03.981',-0.460,-0.460
'4:03.983',-0.465,-0.465
'4:03.986',-0.465,-0.455
'4:03.989',-0.460,-0.450
'4:03.992',-0.455,-0.440
'4:03.994',-0.460,-0.440
'4:03.997',-0.450,-0.430
'4:04.000',-0.450,-0.425
'4:04.003',-0.450,-0.445
'4:04.006',-0.460,-0.450
'4:04.008',-0.460,-0.445
'4:04.011',-0.470,-0.465
'4:04.014',-0.470,-0.450
'4:04.017',-0.470,-0.455
'4:04.019',-0.465,-0.450
'4:04.022',-0.475,-0.460
'4:04.025',-0.495,-0.440
'4:04.028',-0.505,-0.430
'4:04.031',-0.495,-0.425
'4:04.033',-0.475,-0.425
'4:04.036',-0.405,-0.420
'4:04.039',-0.300,-0.440
'4:04.042',-0.155,-0.470
'4:04.044',0.040,-0.535
'4:04.047',0.265,-0.605
'4:04.050',0.510,-0.685
'4:04.053',0.720,-0.760
'4:04.056',0.830,-0.800
'4:04.058',0.815,-0.800
'4:04.061',0.650,-0.760
'4:04.064',0.380,-0.695
'4:04.067',0.070,-0.595
'4:04.069',-0.200,-0.480
'4:04.072',-0.390,-0.390
'4:04.075',-0.465,-0.325
'4:04.078',-0.465,-0.305
'4:04.081',-0.415,-0.320
'4:04.083',-0.375,-0.380
'4:04.086',-0.345,-0.430
'4:04.089',-0.335,-0.475
'4:04.092',-0.350,-0.490
'4:04.094',-0.345,-0.495
'4:04.097',-0.365,-0.500
'4:04.100',-0.375,-0.470
'4:04.103',-0.395,-0.475
'4:04.106',-0.405,-0.465
'4:04.108',-0.400,-0.465
'4:04.111',-0.410,-0.465
'4:04.114',-0.420,-0.475
'4:04.117',-0.430,-0.470
'4:04.119',-0.430,-0.465
'4:04.122',-0.420,-0.455
'4:04.125',-0.420,-0.445
'4:04.128',-0.415,-0.430
'4:04.131',-0.425,-0.440
'4:04.133',-0.425,-0.445
'4:04.136',-0.425,-0.450
'4:04.139',-0.430,-0.455
'4:04.142',-0.435,-0.465
'4:04.144',-0.440,-0.470
'4:04.147',-0.440,-0.480
'4:04.150',-0.435,-0.470
'4:04.153',-0.440,-0.455
'4:04.156',-0.430,-0.440
'4:04.158',-0.425,-0.445
'4:04.161',-0.415,-0.435
'4:04.164',-0.415,-0.440
'4:04.167',-0.415,-0.445
'4:04.169',-0.405,-0.445
'4:04.172',-0.410,-0.460
'4:04.175',-0.405,-0.460
'4:04.178',-0.415,-0.470
'4:04.181',-0.410,-0.480
'4:04.183',-0.415,-0.475
'4:04.186',-0.415,-0.470
'4:04.189',-0.415,-0.460
'4:04.192',-0.400,-0.455
'4:04.194',-0.390,-0.445
'4:04.197',-0.395,-0.450
'4:04.200',-0.385,-0.455
'4:04.203',-0.395,-0.465
'4:04.206',-0.395,-0.475
'4:04.208',-0.400,-0.480
'4:04.211',-0.410,-0.490
'4:04.214',-0.400,-0.490
'4:04.217',-0.405,-0.475
'4:04.219',-0.400,-0.485
'4:04.222',-0.400,-0.470
'4:04.225',-0.390,-0.465
'4:04.228',-0.380,-0.465
'4:04.231',-0.385,-0.470
'4:04.233',-0.375,-0.480
'4:04.236',-0.380,-0.490
'4:04.239',-0.385,-0.490
'4:04.242',-0.380,-0.510
'4:04.244',-0.395,-0.505
'4:04.247',-0.385,-0.505
'4:04.250',-0.395,-0.495
'4:04.253',-0.380,-0.500
'4:04.256',-0.380,-0.495
'4:04.258',-0.385,-0.490
'4:04.261',-0.370,-0.485
'4:04.264',-0.360,-0.490
'4:04.267',-0.355,-0.495
'4:04.269',-0.355,-0.500
'4:04.272',-0.370,-0.515
'4:04.275',-0.375,-0.530
'4:04.278',-0.380,-0.530
'4:04.281',-0.380,-0.530
'4:04.283',-0.385,-0.525
'4:04.286',-0.375,-0.530
'4:04.289',-0.360,-0.530
'4:04.292',-0.345,-0.515
'4:04.294',-0.340,-0.515
'4:04.297',-0.345,-0.515
'4:04.300',-0.340,-0.530
'4:04.303',-0.340,-0.515
'4:04.306',-0.335,-0.535
'4:04.308',-0.340,-0.545
'4:04.311',-0.340,-0.545
'4:04.314',-0.340,-0.545
'4:04.317',-0.330,-0.560
'4:04.319',-0.325,-0.560
'4:04.322',-0.305,-0.560
'4:04.325',-0.315,-0.555
'4:04.328',-0.295,-0.550
'4:04.331',-0.290,-0.555
'4:04.333',-0.285,-0.550
'4:04.336',-0.280,-0.560
'4:04.339',-0.280,-0.565
'4:04.342',-0.285,-0.565
'4:04.344',-0.290,-0.565
'4:04.347',-0.300,-0.570
'4:04.350',-0.290,-0.560
'4:04.353',-0.295,-0.560
'4:04.356',-0.285,-0.550
'4:04.358',-0.290,-0.555
'4:04.361',-0.290,-0.545
'4:04.364',-0.295,-0.540
'4:04.367',-0.290,-0.540
'4:04.369',-0.295,-0.540
'4:04.372',-0.300,-0.540
'4:04.375',-0.310,-0.540
'4:04.378',-0.320,-0.545
'4:04.381',-0.330,-0.535
'4:04.383',-0.335,-0.535
'4:04.386',-0.340,-0.535
'4:04.389',-0.340,-0.515
'4:04.392',-0.350,-0.505
'4:04.394',-0.360,-0.500
'4:04.397',-0.360,-0.490
'4:04.400',-0.355,-0.500
'4:04.403',-0.370,-0.510
'4:04.406',-0.375,-0.500
'4:04.408',-0.380,-0.505
'4:04.411',-0.390,-0.520
'4:04.414',-0.400,-0.515
'4:04.417',-0.400,-0.490
'4:04.419',-0.395,-0.500
'4:04.422',-0.385,-0.495
'4:04.425',-0.385,-0.480
'4:04.428',-0.375,-0.465
'4:04.431',-0.380,-0.470
'4:04.433',-0.375,-0.470
'4:04.436',-0.375,-0.475
'4:04.439',-0.375,-0.485
'4:04.442',-0.385,-0.495
'4:04.444',-0.400,-0.495
'4:04.447',-0.405,-0.495
'4:04.450',-0.410,-0.495
'4:04.453',-0.415,-0.485
'4:04.456',-0.420,-0.465
'4:04.458',-0.415,-0.465
'4:04.461',-0.410,-0.450
'4:04.464',-0.400,-0.450
'4:04.467',-0.400,-0.460
'4:04.469',-0.400,-0.460
'4:04.472',-0.405,-0.465
'4:04.475',-0.425,-0.480
'4:04.478',-0.430,-0.490
'4:04.481',-0.440,-0.480
'4:04.483',-0.445,-0.490
'4:04.486',-0.435,-0.470
'4:04.489',-0.430,-0.470
'4:04.492',-0.425,-0.460
'4:04.494',-0.415,-0.465
'4:04.497',-0.405,-0.455
'4:04.500',-0.410,-0.460
'4:04.503',-0.405,-0.465
'4:04.506',-0.410,-0.480
'4:04.508',-0.420,-0.470
'4:04.511',-0.430,-0.480
'4:04.514',-0.430,-0.495
'4:04.517',-0.440,-0.475
'4:04.519',-0.430,-0.475
'4:04.522',-0.435,-0.460
'4:04.525',-0.430,-0.460
'4:04.528',-0.420,-0.450
'4:04.531',-0.425,-0.455
'4:04.533',-0.430,-0.455
'4:04.536',-0.425,-0.465
'4:04.539',-0.425,-0.465
'4:04.542',-0.415,-0.465
'4:04.544',-0.415,-0.475
'4:04.547',-0.405,-0.485
'4:04.550',-0.400,-0.470
'4:04.553',-0.390,-0.455
'4:04.556',-0.375,-0.440
'4:04.558',-0.385,-0.445
'4:04.561',-0.370,-0.435
'4:04.564',-0.365,-0.430
'4:04.567',-0.365,-0.430
'4:04.569',-0.370,-0.435
'4:04.572',-0.370,-0.435
'4:04.575',-0.365,-0.445
'4:04.578',-0.345,-0.450
'4:04.581',-0.345,-0.460
'4:04.583',-0.345,-0.475
'4:04.586',-0.360,-0.475
'4:04.589',-0.355,-0.485
'4:04.592',-0.360,-0.480
'4:04.594',-0.360,-0.500
'4:04.597',-0.375,-0.490
'4:04.600',-0.370,-0.510
'4:04.603',-0.380,-0.500
'4:04.606',-0.385,-0.505
'4:04.608',-0.400,-0.510
'4:04.611',-0.415,-0.515
'4:04.614',-0.405,-0.505
'4:04.617',-0.430,-0.500
'4:04.619',-0.430,-0.505
'4:04.622',-0.425,-0.490
'4:04.625',-0.430,-0.475
'4:04.628',-0.420,-0.465
'4:04.631',-0.425,-0.455
'4:04.633',-0.435,-0.470
'4:04.636',-0.445,-0.460
'4:04.639',-0.450,-0.470
'4:04.642',-0.470,-0.470
'4:04.644',-0.485,-0.475
'4:04.647',-0.475,-0.475
'4:04.650',-0.490,-0.465
'4:04.653',-0.490,-0.460
'4:04.656',-0.485,-0.460
'4:04.658',-0.470,-0.440
'4:04.661',-0.460,-0.455
'4:04.664',-0.455,-0.455
'4:04.667',-0.460,-0.455
'4:04.669',-0.470,-0.450
'4:04.672',-0.475,-0.460
'4:04.675',-0.470,-0.465
'4:04.678',-0.475,-0.475
'4:04.681',-0.475,-0.470
'4:04.683',-0.485,-0.460
'4:04.686',-0.485,-0.465
'4:04.689',-0.495,-0.455
'4:04.692',-0.510,-0.450
'4:04.694',-0.525,-0.450
'4:04.697',-0.530,-0.430
'4:04.700',-0.525,-0.435
'4:04.703',-0.450,-0.425
'4:04.706',-0.370,-0.445
'4:04.708',-0.235,-0.465
'4:04.711',-0.075,-0.500
'4:04.714',0.130,-0.560
'4:04.717',0.350,-0.615
'4:04.719',0.575,-0.695
'4:04.722',0.755,-0.745
'4:04.725',0.860,-0.780
'4:04.728',0.835,-0.770
'4:04.731',0.665,-0.725
'4:04.733',0.400,-0.675
'4:04.736',0.100,-0.590
'4:04.739',-0.180,-0.495
'4:04.742',-0.385,-0.425
'4:04.744',-0.475,-0.355
'4:04.747',-0.485,-0.320
'4:04.750',-0.450,-0.325
'4:04.753',-0.400,-0.355
'4:04.756',-0.365,-0.400
'4:04.758',-0.355,-0.450
'4:04.761',-0.355,-0.490
'4:04.764',-0.360,-0.505
'4:04.767',-0.370,-0.515
'4:04.769',-0.385,-0.500
'4:04.772',-0.400,-0.485
'4:04.775',-0.425,-0.485
'4:04.778',-0.440,-0.485
'4:04.781',-0.450,-0.480
'4:04.783',-0.455,-0.470
'4:04.786',-0.445,-0.470
'4:04.789',-0.445,-0.460
'4:04.792',-0.435,-0.455
'4:04.794',-0.435,-0.440
'4:04.797',-0.445,-0.450
'4:04.800',-0.435,-0.440
'4:04.803',-0.445,-0.440
'4:04.806',-0.440,-0.450
'4:04.808',-0.445,-0.470
'4:04.811',-0.455,-0.470
'4:04.814',-0.450,-0.470
'4:04.817',-0.455,-0.460
'4:04.819',-0.450,-0.460
'4:04.822',-0.450,-0.445
'4:04.825',-0.445,-0.450
'4:04.828',-0.435,-0.445
'4:04.831',-0.425,-0.445
'4:04.833',-0.420,-0.460
'4:04.836',-0.420,-0.460
'4:04.839',-0.430,-0.465
'4:04.842',-0.430,-0.455
'4:04.844',-0.430,-0.485
'4:04.847',-0.435,-0.475
'4:04.850',-0.440,-0.475
'4:04.853',-0.435,-0.465
'4:04.856',-0.435,-0.460
'4:04.858',-0.425,-0.450
'4:04.861',-0.415,-0.455
'4:04.864',-0.405,-0.455
'4:04.867',-0.405,-0.460
'4:04.869',-0.400,-0.460
'4:04.872',-0.405,-0.480
'4:04.875',-0.405,-0.490
'4:04.878',-0.420,-0.485
'4:04.881',-0.430,-0.485
'4:04.883',-0.425,-0.495
'4:04.886',-0.420,-0.480
'4:04.889',-0.415,-0.485
'4:04.892',-0.410,-0.485
'4:04.894',-0.410,-0.470
'4:04.897',-0.415,-0.475
'4:04.900',-0.395,-0.475
'4:04.903',-0.400,-0.490
'4:04.906',-0.405,-0.495
'4:04.908',-0.400,-0.495
'4:04.911',-0.400,-0.500
'4:04.914',-0.405,-0.495
'4:04.917',-0.400,-0.495
'4:04.919',-0.400,-0.490
'4:04.922',-0.400,-0.495
'4:04.925',-0.395,-0.485
'4:04.928',-0.395,-0.475
'4:04.931',-0.385,-0.490
'4:04.933',-0.385,-0.495
'4:04.936',-0.390,-0.500
'4:04.939',-0.380,-0.505
'4:04.942',-0.395,-0.515
'4:04.944',-0.395,-0.525
'4:04.947',-0.400,-0.530
'4:04.950',-0.400,-0.520
'4:04.953',-0.395,-0.520
'4:04.956',-0.385,-0.515
'4:04.958',-0.385,-0.505
'4:04.961',-0.375,-0.510
'4:04.964',-0.375,-0.500
'4:04.967',-0.370,-0.510
'4:04.969',-0.370,-0.515
'4:04.972',-0.375,-0.520
'4:04.975',-0.380,-0.530
'4:04.978',-0.370,-0.530
'4:04.981',-0.390,-0.545
'4:04.983',-0.390,-0.545
'4:04.986',-0.375,-0.540
'4:04.989',-0.365,-0.535
'4:04.992',-0.350,-0.540
'4:04.994',-0.345,-0.520
'4:04.997',-0.330,-0.525
'4:05.000',-0.325,-0.540
'4:05.003',-0.315,-0.545
'4:05.006',-0.315,-0.555
'4:05.008',-0.310,-0.570
'4:05.011',-0.310,-0.560
'4:05.014',-0.300,-0.570
'4:05.017',-0.305,-0.565
'4:05.019',-0.300,-0.560
'4:05.022',-0.290,-0.570
'4:05.025',-0.290,-0.545
'4:05.028',-0.285,-0.550
'4:05.031',-0.280,-0.545
'4:05.033',-0.280,-0.545
'4:05.036',-0.270,-0.560
'4:05.039',-0.290,-0.560
'4:05.042',-0.295,-0.560
'4:05.044',-0.310,-0.565
'4:05.047',-0.310,-0.560
'4:05.050',-0.320,-0.555
'4:05.053',-0.320,-0.550
'4:05.056',-0.325,-0.535
'4:05.058',-0.320,-0.520
'4:05.061',-0.335,-0.515
'4:05.064',-0.325,-0.515
'4:05.067',-0.330,-0.510
'4:05.069',-0.330,-0.520
'4:05.072',-0.345,-0.520
'4:05.075',-0.350,-0.515
'4:05.078',-0.365,-0.530
'4:05.081',-0.355,-0.515
'4:05.083',-0.375,-0.515
'4:05.086',-0.375,-0.495
'4:05.089',-0.365,-0.495
'4:05.092',-0.365,-0.490
'4:05.094',-0.360,-0.480
'4:05.097',-0.355,-0.470
'4:05.100',-0.355,-0.480
'4:05.103',-0.360,-0.480
'4:05.106',-0.365,-0.490
'4:05.108',-0.370,-0.490
'4:05.111',-0.370,-0.505
'4:05.114',-0.385,-0.495
'4:05.117',-0.375,-0.490
'4:05.119',-0.385,-0.480
'4:05.122',-0.370,-0.475
'4:05.125',-0.380,-0.470
'4:05.128',-0.375,-0.470
'4:05.131',-0.365,-0.470
'4:05.133',-0.365,-0.480
'4:05.136',-0.375,-0.485
'4:05.139',-0.375,-0.485
'4:05.142',-0.390,-0.490
'4:05.144',-0.395,-0.500
'4:05.147',-0.405,-0.495
'4:05.150',-0.405,-0.485
'4:05.153',-0.395,-0.485
'4:05.156',-0.385,-0.475
'4:05.158',-0.385,-0.470
'4:05.161',-0.380,-0.465
'4:05.164',-0.375,-0.465
'4:05.167',-0.380,-0.480
'4:05.169',-0.380,-0.475
'4:05.172',-0.390,-0.470
'4:05.175',-0.395,-0.480
'4:05.178',-0.400,-0.495
'4:05.181',-0.405,-0.495
'4:05.183',-0.410,-0.485
'4:05.186',-0.410,-0.480
'4:05.189',-0.410,-0.470
'4:05.192',-0.410,-0.465
'4:05.194',-0.390,-0.460
'4:05.197',-0.390,-0.465
'4:05.200',-0.390,-0.465
'4:05.203',-0.395,-0.470
'4:05.206',-0.405,-0.470
'4:05.208',-0.400,-0.480
'4:05.211',-0.415,-0.485
'4:05.214',-0.415,-0.490
'4:05.217',-0.420,-0.465
'4:05.219',-0.420,-0.465
'4:05.222',-0.405,-0.465
'4:05.225',-0.390,-0.450
'4:05.228',-0.375,-0.440
'4:05.231',-0.370,-0.460
'4:05.233',-0.360,-0.465
'4:05.236',-0.340,-0.455
'4:05.239',-0.330,-0.455
'4:05.242',-0.340,-0.460
'4:05.244',-0.360,-0.470
'4:05.247',-0.360,-0.465
'4:05.250',-0.355,-0.465
'4:05.253',-0.350,-0.445
'4:05.256',-0.350,-0.445
'4:05.258',-0.325,-0.440
'4:05.261',-0.310,-0.440
'4:05.264',-0.290,-0.455
'4:05.267',-0.290,-0.470
'4:05.269',-0.310,-0.480
'4:05.272',-0.330,-0.510
'4:05.275',-0.335,-0.515
'4:05.278',-0.355,-0.530
'4:05.281',-0.370,-0.530
'4:05.283',-0.370,-0.530
'4:05.286',-0.375,-0.520
'4:05.289',-0.370,-0.510
'4:05.292',-0.365,-0.505
'4:05.294',-0.365,-0.495
'4:05.297',-0.350,-0.495
'4:05.300',-0.365,-0.490
'4:05.303',-0.370,-0.505
'4:05.306',-0.375,-0.510
'4:05.308',-0.395,-0.515
'4:05.311',-0.410,-0.510
'4:05.314',-0.415,-0.500
'4:05.317',-0.430,-0.495
'4:05.319',-0.440,-0.480
'4:05.322',-0.440,-0.470
'4:05.325',-0.435,-0.455
'4:05.328',-0.430,-0.445
'4:05.331',-0.430,-0.450
'4:05.333',-0.420,-0.455
'4:05.336',-0.430,-0.460
'4:05.339',-0.425,-0.470
'4:05.342',-0.430,-0.475
'4:05.344',-0.445,-0.485
'4:05.347',-0.440,-0.495
'4:05.350',-0.440,-0.490
'4:05.353',-0.435,-0.475
'4:05.356',-0.430,-0.465
'4:05.358',-0.425,-0.470
'4:05.361',-0.415,-0.460
'4:05.364',-0.420,-0.450
'4:05.367',-0.425,-0.460
'4:05.369',-0.450,-0.470
'4:05.372',-0.500,-0.460
'4:05.375',-0.510,-0.465
'4:05.378',-0.495,-0.460
'4:05.381',-0.435,-0.460
'4:05.383',-0.330,-0.450
'4:05.386',-0.215,-0.480
'4:05.389',-0.045,-0.510
'4:05.392',0.155,-0.550
'4:05.394',0.370,-0.630
'4:05.397',0.595,-0.705
'4:05.400',0.770,-0.755
'4:05.403',0.845,-0.780
'4:05.406',0.760,-0.780
'4:05.408',0.550,-0.745
'4:05.411',0.255,-0.685
'4:05.414',-0.045,-0.590
'4:05.417',-0.295,-0.495
'4:05.419',-0.440,-0.410
'4:05.422',-0.480,-0.360
'4:05.425',-0.430,-0.355
'4:05.428',-0.365,-0.380
'4:05.431',-0.315,-0.435
'4:05.433',-0.290,-0.500
'4:05.436',-0.285,-0.530
'4:05.439',-0.310,-0.545
'4:05.442',-0.335,-0.555
'4:05.444',-0.380,-0.535
'4:05.447',-0.395,-0.515
'4:05.450',-0.415,-0.505
'4:05.453',-0.420,-0.500
'4:05.456',-0.420,-0.485
'4:05.458',-0.400,-0.485
'4:05.461',-0.395,-0.470
'4:05.464',-0.390,-0.475
'4:05.467',-0.390,-0.480
'4:05.469',-0.395,-0.485
'4:05.472',-0.395,-0.495
'4:05.475',-0.420,-0.490
'4:05.478',-0.415,-0.500
'4:05.481',-0.420,-0.505
'4:05.483',-0.420,-0.495
'4:05.486',-0.415,-0.485
'4:05.489',-0.420,-0.465
'4:05.492',-0.405,-0.470
'4:05.494',-0.400,-0.475
'4:05.497',-0.400,-0.475
'4:05.500',-0.395,-0.475
'4:05.503',-0.400,-0.475
'4:05.506',-0.395,-0.485
'4:05.508',-0.400,-0.490
'4:05.511',-0.405,-0.500
'4:05.514',-0.405,-0.510
'4:05.517',-0.405,-0.490
'4:05.519',-0.405,-0.495
'4:05.522',-0.395,-0.495
'4:05.525',-0.400,-0.475
'4:05.528',-0.395,-0.480
'4:05.531',-0.385,-0.475
'4:05.533',-0.375,-0.485
'4:05.536',-0.375,-0.480
'4:05.539',-0.370,-0.490
'4:05.542',-0.390,-0.500
'4:05.544',-0.385,-0.505
'4:05.547',-0.400,-0.510
'4:05.550',-0.390,-0.505
'4:05.553',-0.390,-0.515
'4:05.556',-0.390,-0.510
'4:05.558',-0.380,-0.500
'4:05.561',-0.375,-0.490
'4:05.564',-0.365,-0.495
'4:05.567',-0.360,-0.495
'4:05.569',-0.370,-0.500
'4:05.572',-0.365,-0.510
'4:05.575',-0.380,-0.515
'4:05.578',-0.375,-0.530
'4:05.581',-0.380,-0.520
'4:05.583',-0.385,-0.520
'4:05.586',-0.385,-0.525
'4:05.589',-0.370,-0.520
'4:05.592',-0.375,-0.510
'4:05.594',-0.370,-0.505
'4:05.597',-0.355,-0.515
'4:05.600',-0.350,-0.515
'4:05.603',-0.360,-0.515
'4:05.606',-0.360,-0.525
'4:05.608',-0.370,-0.545
'4:05.611',-0.370,-0.550
'4:05.614',-0.370,-0.545
'4:05.617',-0.370,-0.545
'4:05.619',-0.380,-0.535
'4:05.622',-0.365,-0.540
'4:05.625',-0.360,-0.530
'4:05.628',-0.355,-0.530
'4:05.631',-0.350,-0.525
'4:05.633',-0.350,-0.535
'4:05.636',-0.350,-0.540
'4:05.639',-0.350,-0.550
'4:05.642',-0.355,-0.550
'4:05.644',-0.355,-0.570
'4:05.647',-0.360,-0.565
'4:05.650',-0.365,-0.565
'4:05.653',-0.360,-0.570
'4:05.656',-0.350,-0.550
'4:05.658',-0.335,-0.560
'4:05.661',-0.325,-0.550
'4:05.664',-0.310,-0.545
'4:05.667',-0.295,-0.560
'4:05.669',-0.295,-0.555
'4:05.672',-0.295,-0.575
'4:05.675',-0.300,-0.585
'4:05.678',-0.290,-0.590
'4:05.681',-0.295,-0.590
'4:05.683',-0.285,-0.585
'4:05.686',-0.280,-0.590
'4:05.689',-0.280,-0.585
'4:05.692',-0.280,-0.580
'4:05.694',-0.270,-0.575
'4:05.697',-0.270,-0.570
'4:05.700',-0.270,-0.570
'4:05.703',-0.285,-0.575
'4:05.706',-0.300,-0.570
'4:05.708',-0.300,-0.575
'4:05.711',-0.310,-0.580
'4:05.714',-0.340,-0.575
'4:05.717',-0.340,-0.575
'4:05.719',-0.345,-0.565
'4:05.722',-0.345,-0.550
'4:05.725',-0.340,-0.550
'4:05.728',-0.340,-0.530
'4:05.731',-0.345,-0.530
'4:05.733',-0.350,-0.530
'4:05.736',-0.345,-0.535
'4:05.739',-0.350,-0.535
'4:05.742',-0.355,-0.545
'4:05.744',-0.375,-0.530
'4:05.747',-0.380,-0.550
'4:05.750',-0.380,-0.530
'4:05.753',-0.380,-0.520
'4:05.756',-0.380,-0.520
'4:05.758',-0.380,-0.500
'4:05.761',-0.380,-0.500
'4:05.764',-0.370,-0.500
'4:05.767',-0.375,-0.505
'4:05.769',-0.370,-0.500
'4:05.772',-0.385,-0.510
'4:05.775',-0.390,-0.520
'4:05.778',-0.400,-0.525
'4:05.781',-0.405,-0.525
'4:05.783',-0.415,-0.520
'4:05.786',-0.400,-0.515
'4:05.789',-0.405,-0.500
'4:05.792',-0.400,-0.495
'4:05.794',-0.400,-0.495
'4:05.797',-0.395,-0.490
'4:05.800',-0.390,-0.495
'4:05.803',-0.390,-0.495
'4:05.806',-0.400,-0.505
'4:05.808',-0.400,-0.510
'4:05.811',-0.415,-0.520
'4:05.814',-0.415,-0.515
'4:05.817',-0.415,-0.510
'4:05.819',-0.420,-0.505
'4:05.822',-0.415,-0.500
'4:05.825',-0.410,-0.490
'4:05.828',-0.405,-0.485
'4:05.831',-0.400,-0.485
'4:05.833',-0.405,-0.485
'4:05.836',-0.410,-0.495
'4:05.839',-0.410,-0.495
'4:05.842',-0.420,-0.510
'4:05.844',-0.425,-0.510
'4:05.847',-0.435,-0.510
'4:05.850',-0.430,-0.500
'4:05.853',-0.435,-0.490
'4:05.856',-0.435,-0.495
'4:05.858',-0.425,-0.480
'4:05.861',-0.415,-0.475
'4:05.864',-0.415,-0.490
'4:05.867',-0.415,-0.490
'4:05.869',-0.415,-0.480
'4:05.872',-0.425,-0.500
'4:05.875',-0.420,-0.495
'4:05.878',-0.420,-0.500
'4:05.881',-0.425,-0.510
'4:05.883',-0.430,-0.515
'4:05.886',-0.420,-0.510
'4:05.889',-0.410,-0.490
'4:05.892',-0.395,-0.485
'4:05.894',-0.375,-0.475
'4:05.897',-0.360,-0.460
'4:05.900',-0.360,-0.475
'4:05.903',-0.365,-0.475
'4:05.906',-0.380,-0.480
'4:05.908',-0.380,-0.475
'4:05.911',-0.385,-0.470
'4:05.914',-0.380,-0.475
'4:05.917',-0.375,-0.470
'4:05.919',-0.370,-0.475
'4:05.922',-0.355,-0.470
'4:05.925',-0.330,-0.465
'4:05.928',-0.330,-0.480
'4:05.931',-0.335,-0.490
'4:05.933',-0.350,-0.505
'4:05.936',-0.365,-0.525
'4:05.939',-0.380,-0.540
'4:05.942',-0.400,-0.550
'4:05.944',-0.410,-0.545
'4:05.947',-0.415,-0.550
'4:05.950',-0.420,-0.545
'4:05.953',-0.410,-0.530
'4:05.956',-0.405,-0.530
'4:05.958',-0.410,-0.520
'4:05.961',-0.405,-0.525
'4:05.964',-0.410,-0.510
'4:05.967',-0.405,-0.510
'4:05.969',-0.415,-0.505
'4:05.972',-0.440,-0.510
'4:05.975',-0.455,-0.510
'4:05.978',-0.480,-0.505
'4:05.981',-0.490,-0.500
'4:05.983',-0.505,-0.490
'4:05.986',-0.505,-0.480
'4:05.989',-0.505,-0.475
'4:05.992',-0.495,-0.475
'4:05.994',-0.490,-0.465
'4:05.997',-0.470,-0.460
'4:06.000',-0.460,-0.475
'4:06.003',-0.460,-0.470
'4:06.006',-0.465,-0.480
'4:06.008',-0.470,-0.485
'4:06.011',-0.475,-0.490
'4:06.014',-0.475,-0.500
'4:06.017',-0.475,-0.485
'4:06.019',-0.475,-0.490
'4:06.022',-0.475,-0.485
'4:06.025',-0.460,-0.485
'4:06.028',-0.455,-0.485
'4:06.031',-0.465,-0.460
'4:06.033',-0.475,-0.465
'4:06.036',-0.490,-0.475
'4:06.039',-0.510,-0.470
'4:06.042',-0.530,-0.455
'4:06.044',-0.500,-0.460
'4:06.047',-0.450,-0.460
'4:06.050',-0.365,-0.455
'4:06.053',-0.240,-0.470
'4:06.056',-0.075,-0.510
'4:06.058',0.100,-0.555
'4:06.061',0.320,-0.625
'4:06.064',0.530,-0.705
'4:06.067',0.690,-0.785
'4:06.069',0.765,-0.810
'4:06.072',0.700,-0.825
'4:06.075',0.505,-0.795
'4:06.078',0.235,-0.740
'4:06.081',-0.055,-0.655
'4:06.083',-0.310,-0.545
'4:06.086',-0.470,-0.450
'4:06.089',-0.500,-0.390
'4:06.092',-0.465,-0.360
'4:06.094',-0.405,-0.395
'4:06.097',-0.345,-0.440
'4:06.100',-0.315,-0.500
'4:06.103',-0.320,-0.550
'4:06.106',-0.335,-0.570
'4:06.108',-0.360,-0.575
'4:06.111',-0.400,-0.565
'4:06.114',-0.430,-0.535
'4:06.117',-0.440,-0.520
'4:06.119',-0.455,-0.510
'4:06.122',-0.445,-0.495
'4:06.125',-0.430,-0.495
'4:06.128',-0.425,-0.495
'4:06.131',-0.420,-0.480
'4:06.133',-0.415,-0.490
'4:06.136',-0.415,-0.490
'4:06.139',-0.435,-0.495
'4:06.142',-0.435,-0.495
'4:06.144',-0.435,-0.495
'4:06.147',-0.450,-0.510
'4:06.150',-0.455,-0.505
'4:06.153',-0.450,-0.505
'4:06.156',-0.435,-0.495
'4:06.158',-0.435,-0.480
'4:06.161',-0.430,-0.490
'4:06.164',-0.415,-0.485
'4:06.167',-0.410,-0.485
'4:06.169',-0.415,-0.485
'4:06.172',-0.415,-0.495
'4:06.175',-0.420,-0.495
'4:06.178',-0.430,-0.505
'4:06.181',-0.430,-0.520
'4:06.183',-0.440,-0.500
'4:06.186',-0.435,-0.495
'4:06.189',-0.430,-0.490
'4:06.192',-0.415,-0.490
'4:06.194',-0.415,-0.485
'4:06.197',-0.395,-0.480
'4:06.200',-0.400,-0.485
'4:06.203',-0.395,-0.490
'4:06.206',-0.390,-0.500
'4:06.208',-0.400,-0.500
'4:06.211',-0.410,-0.520
'4:06.214',-0.420,-0.520
'4:06.217',-0.410,-0.515
'4:06.219',-0.410,-0.520
'4:06.222',-0.400,-0.520
'4:06.225',-0.395,-0.505
'4:06.228',-0.385,-0.505
'4:06.231',-0.385,-0.510
'4:06.233',-0.380,-0.515
'4:06.236',-0.380,-0.510
'4:06.239',-0.380,-0.515
'4:06.242',-0.390,-0.545
'4:06.244',-0.395,-0.540
'4:06.247',-0.390,-0.535
'4:06.250',-0.400,-0.545
'4:06.253',-0.385,-0.540
'4:06.256',-0.385,-0.535
'4:06.258',-0.375,-0.530
'4:06.261',-0.370,-0.520
'4:06.264',-0.365,-0.525
'4:06.267',-0.360,-0.530
'4:06.269',-0.360,-0.545
'4:06.272',-0.360,-0.540
'4:06.275',-0.370,-0.565
'4:06.278',-0.375,-0.565
'4:06.281',-0.380,-0.580
'4:06.283',-0.380,-0.570
'4:06.286',-0.385,-0.570
'4:06.289',-0.380,-0.570
'4:06.292',-0.375,-0.555
'4:06.294',-0.360,-0.550
'4:06.297',-0.350,-0.550
'4:06.300',-0.360,-0.550
'4:06.303',-0.350,-0.555
'4:06.306',-0.355,-0.565
'4:06.308',-0.360,-0.580
'4:06.311',-0.365,-0.585
'4:06.314',-0.355,-0.595
'4:06.317',-0.365,-0.580
'4:06.319',-0.365,-0.585
'4:06.322',-0.350,-0.585
'4:06.325',-0.340,-0.575
'4:06.328',-0.330,-0.580
'4:06.331',-0.305,-0.570
'4:06.333',-0.300,-0.590
'4:06.336',-0.290,-0.600
'4:06.339',-0.290,-0.600
'4:06.342',-0.290,-0.610
'4:06.344',-0.300,-0.610
'4:06.347',-0.305,-0.620
'4:06.350',-0.305,-0.620
'4:06.353',-0.295,-0.620
'4:06.356',-0.290,-0.610
'4:06.358',-0.285,-0.605
'4:06.361',-0.280,-0.600
'4:06.364',-0.285,-0.595
'4:06.367',-0.280,-0.595
'4:06.369',-0.290,-0.590
'4:06.372',-0.295,-0.600
'4:06.375',-0.310,-0.605
'4:06.378',-0.325,-0.600
'4:06.381',-0.325,-0.610
'4:06.383',-0.345,-0.595
'4:06.386',-0.365,-0.590
'4:06.389',-0.350,-0.580
'4:06.392',-0.345,-0.570
'4:06.394',-0.345,-0.555
'4:06.397',-0.345,-0.540
'4:06.400',-0.345,-0.550
'4:06.403',-0.350,-0.555
'4:06.406',-0.360,-0.550
'4:06.408',-0.370,-0.560
'4:06.411',-0.375,-0.565
'4:06.414',-0.390,-0.570
'4:06.417',-0.400,-0.565
'4:06.419',-0.395,-0.555
'4:06.422',-0.390,-0.550
'4:06.425',-0.400,-0.550
'4:06.428',-0.385,-0.535
'4:06.431',-0.380,-0.530
'4:06.433',-0.375,-0.535
'4:06.436',-0.375,-0.525
'4:06.439',-0.390,-0.530
'4:06.442',-0.395,-0.540
'4:06.444',-0.405,-0.550
'4:06.447',-0.405,-0.545
'4:06.450',-0.405,-0.545
'4:06.453',-0.415,-0.535
'4:06.456',-0.415,-0.520
'4:06.458',-0.395,-0.540
'4:06.461',-0.395,-0.520
'4:06.464',-0.395,-0.515
'4:06.467',-0.400,-0.510
'4:06.469',-0.400,-0.515
'4:06.472',-0.405,-0.535
'4:06.475',-0.415,-0.535
'4:06.478',-0.420,-0.540
'4:06.481',-0.425,-0.540
'4:06.483',-0.425,-0.545
'4:06.486',-0.430,-0.520
'4:06.489',-0.430,-0.525
'4:06.492',-0.415,-0.520
'4:06.494',-0.425,-0.510
'4:06.497',-0.420,-0.510
'4:06.500',-0.415,-0.520
'4:06.503',-0.425,-0.520
'4:06.506',-0.420,-0.520
'4:06.508',-0.425,-0.525
'4:06.511',-0.435,-0.535
'4:06.514',-0.435,-0.535
'4:06.517',-0.450,-0.530
'4:06.519',-0.450,-0.540
'4:06.522',-0.440,-0.525
'4:06.525',-0.435,-0.520
'4:06.528',-0.430,-0.515
'4:06.531',-0.420,-0.510
'4:06.533',-0.420,-0.515
'4:06.536',-0.415,-0.515
'4:06.539',-0.410,-0.525
'4:06.542',-0.415,-0.515
'4:06.544',-0.410,-0.535
'4:06.547',-0.410,-0.535
'4:06.550',-0.410,-0.535
'4:06.553',-0.410,-0.535
'4:06.556',-0.390,-0.515
'4:06.558',-0.375,-0.510
'4:06.561',-0.365,-0.490
'4:06.564',-0.360,-0.490
'4:06.567',-0.355,-0.500
'4:06.569',-0.350,-0.495
'4:06.572',-0.350,-0.500
'4:06.575',-0.350,-0.510
'4:06.578',-0.350,-0.510
'4:06.581',-0.335,-0.525
'4:06.583',-0.350,-0.530
'4:06.586',-0.350,-0.540
'4:06.589',-0.365,-0.555
'4:06.592',-0.370,-0.555
'4:06.594',-0.390,-0.560
'4:06.597',-0.390,-0.570
'4:06.600',-0.390,-0.570
'4:06.603',-0.385,-0.580
'4:06.606',-0.390,-0.565
'4:06.608',-0.400,-0.580
'4:06.611',-0.405,-0.580
'4:06.614',-0.415,-0.585
'4:06.617',-0.420,-0.580
'4:06.619',-0.425,-0.570
'4:06.622',-0.435,-0.565
'4:06.625',-0.440,-0.550
'4:06.628',-0.450,-0.535
'4:06.631',-0.455,-0.510
'4:06.633',-0.465,-0.510
'4:06.636',-0.465,-0.505
'4:06.639',-0.470,-0.505
'4:06.642',-0.475,-0.515
'4:06.644',-0.475,-0.530
'4:06.647',-0.475,-0.535
'4:06.650',-0.475,-0.540
'4:06.653',-0.475,-0.535
'4:06.656',-0.465,-0.525
'4:06.658',-0.470,-0.530
'4:06.661',-0.455,-0.515
'4:06.664',-0.445,-0.515
'4:06.667',-0.440,-0.515
'4:06.669',-0.450,-0.515
'4:06.672',-0.450,-0.525
'4:06.675',-0.455,-0.535
'4:06.678',-0.460,-0.540
'4:06.681',-0.490,-0.550
'4:06.683',-0.505,-0.540
'4:06.686',-0.525,-0.525
'4:06.689',-0.520,-0.505
'4:06.692',-0.485,-0.485
'4:06.694',-0.410,-0.490
'4:06.697',-0.305,-0.495
'4:06.700',-0.170,-0.530
'4:06.703',0.015,-0.580
'4:06.706',0.220,-0.670
'4:06.708',0.425,-0.750
'4:06.711',0.595,-0.840
'4:06.714',0.705,-0.910
'4:06.717',0.690,-0.920
'4:06.719',0.550,-0.885
'4:06.722',0.310,-0.835
'4:06.725',0.030,-0.740
'4:06.728',-0.215,-0.635
'4:06.731',-0.390,-0.530
'4:06.733',-0.470,-0.455
'4:06.736',-0.475,-0.405
'4:06.739',-0.430,-0.420
'4:06.742',-0.370,-0.470
'4:06.744',-0.350,-0.545
'4:06.747',-0.335,-0.590
'4:06.750',-0.355,-0.615
'4:06.753',-0.380,-0.620
'4:06.756',-0.385,-0.610
'4:06.758',-0.395,-0.575
'4:06.761',-0.410,-0.545
'4:06.764',-0.415,-0.535
'4:06.767',-0.425,-0.540
'4:06.769',-0.420,-0.535
'4:06.772',-0.420,-0.535
'4:06.775',-0.430,-0.555
'4:06.778',-0.445,-0.550
'4:06.781',-0.450,-0.555
'4:06.783',-0.455,-0.545
'4:06.786',-0.455,-0.545
'4:06.789',-0.450,-0.545
'4:06.792',-0.450,-0.535
'4:06.794',-0.440,-0.525
'4:06.797',-0.430,-0.515
'4:06.800',-0.430,-0.530
'4:06.803',-0.420,-0.520
'4:06.806',-0.425,-0.525
'4:06.808',-0.425,-0.535
'4:06.811',-0.435,-0.545
'4:06.814',-0.435,-0.545
'4:06.817',-0.435,-0.560
'4:06.819',-0.440,-0.540
'4:06.822',-0.440,-0.535
'4:06.825',-0.430,-0.540
'4:06.828',-0.425,-0.520
'4:06.831',-0.420,-0.515
'4:06.833',-0.420,-0.520
'4:06.836',-0.410,-0.525
'4:06.839',-0.415,-0.530
'4:06.842',-0.425,-0.550
'4:06.844',-0.430,-0.555
'4:06.847',-0.420,-0.570
'4:06.850',-0.425,-0.560
'4:06.853',-0.430,-0.555
'4:06.856',-0.420,-0.540
'4:06.858',-0.405,-0.550
'4:06.861',-0.405,-0.530
'4:06.864',-0.400,-0.530
'4:06.867',-0.395,-0.535
'4:06.869',-0.390,-0.535
'4:06.872',-0.395,-0.540
'4:06.875',-0.400,-0.550
'4:06.878',-0.405,-0.565
'4:06.881',-0.410,-0.565
'4:06.883',-0.405,-0.560
'4:06.886',-0.410,-0.575
'4:06.889',-0.405,-0.560
'4:06.892',-0.390,-0.550
'4:06.894',-0.400,-0.545
'4:06.897',-0.390,-0.550
'4:06.900',-0.380,-0.540
'4:06.903',-0.370,-0.545
'4:06.906',-0.385,-0.555
'4:06.908',-0.395,-0.565
'4:06.911',-0.385,-0.575
'4:06.914',-0.385,-0.590
'4:06.917',-0.395,-0.570
'4:06.919',-0.400,-0.590
'4:06.922',-0.395,-0.575
'4:06.925',-0.400,-0.565
'4:06.928',-0.390,-0.570
'4:06.931',-0.380,-0.560
'4:06.933',-0.380,-0.575
'4:06.936',-0.370,-0.570
'4:06.939',-0.360,-0.585
'4:06.942',-0.370,-0.590
'4:06.944',-0.375,-0.600
'4:06.947',-0.385,-0.600
'4:06.950',-0.395,-0.595
'4:06.953',-0.390,-0.585
'4:06.956',-0.380,-0.580
'4:06.958',-0.375,-0.585
'4:06.961',-0.375,-0.575
'4:06.964',-0.360,-0.575
'4:06.967',-0.355,-0.575
'4:06.969',-0.340,-0.590
'4:06.972',-0.335,-0.595
'4:06.975',-0.345,-0.600
'4:06.978',-0.355,-0.620
'4:06.981',-0.355,-0.625
'4:06.983',-0.345,-0.625
'4:06.986',-0.350,-0.620
'4:06.989',-0.340,-0.625
'4:06.992',-0.315,-0.615
'4:06.994',-0.300,-0.615
'4:06.997',-0.290,-0.605
'4:07.000',-0.280,-0.610
'4:07.003',-0.280,-0.625
'4:07.006',-0.285,-0.630
'4:07.008',-0.280,-0.645
'4:07.011',-0.280,-0.645
'4:07.014',-0.280,-0.660
'4:07.017',-0.290,-0.660
'4:07.019',-0.285,-0.660
'4:07.022',-0.280,-0.645
'4:07.025',-0.290,-0.635
'4:07.028',-0.290,-0.615
'4:07.031',-0.300,-0.610
'4:07.033',-0.305,-0.615
'4:07.036',-0.305,-0.605
'4:07.039',-0.310,-0.615
'4:07.042',-0.320,-0.620
'4:07.044',-0.335,-0.625
'4:07.047',-0.345,-0.620
'4:07.050',-0.360,-0.620
'4:07.053',-0.360,-0.610
'4:07.056',-0.365,-0.595
'4:07.058',-0.365,-0.590
'4:07.061',-0.365,-0.585
'4:07.064',-0.365,-0.585
'4:07.067',-0.355,-0.575
'4:07.069',-0.360,-0.575
'4:07.072',-0.375,-0.570
'4:07.075',-0.375,-0.580
'4:07.078',-0.385,-0.590
'4:07.081',-0.395,-0.585
'4:07.083',-0.395,-0.580
'4:07.086',-0.400,-0.580
'4:07.089',-0.395,-0.575
'4:07.092',-0.395,-0.570
'4:07.094',-0.395,-0.550
'4:07.097',-0.385,-0.555
'4:07.100',-0.385,-0.560
'4:07.103',-0.380,-0.565
'4:07.106',-0.390,-0.570
'4:07.108',-0.400,-0.580
'4:07.111',-0.395,-0.575
'4:07.114',-0.405,-0.580
'4:07.117',-0.410,-0.580
'4:07.119',-0.415,-0.570
'4:07.122',-0.405,-0.570
'4:07.125',-0.405,-0.560
'4:07.128',-0.375,-0.550
'4:07.131',-0.345,-0.545
'4:07.133',-0.310,-0.555
'4:07.136',-0.270,-0.555
'4:07.139',-0.235,-0.580
'4:07.142',-0.200,-0.605
'4:07.144',-0.160,-0.630
'4:07.147',-0.125,-0.655
'4:07.150',-0.120,-0.680
'4:07.153',-0.175,-0.710
'4:07.156',-0.305,-0.725
'4:07.158',-0.525,-0.725
'4:07.161',-0.790,-0.705
'4:07.164',-1.065,-0.675
'4:07.167',-1.320,-0.625
'4:07.169',-1.525,-0.575
'4:07.172',-1.695,-0.515
'4:07.175',-1.830,-0.470
'4:07.178',-1.905,-0.395
'4:07.181',-1.910,-0.315
'4:07.183',-1.880,-0.225
'4:07.186',-1.790,-0.125
'4:07.189',-1.680,-0.045
'4:07.192',-1.560,0.000
'4:07.194',-1.430,0.020
'4:07.197',-1.315,0.020
'4:07.200',-1.215,-0.005
'4:07.203',-1.120,-0.035
'4:07.206',-1.050,-0.085
'4:07.208',-0.985,-0.130
'4:07.211',-0.950,-0.160
'4:07.214',-0.910,-0.185
'4:07.217',-0.865,-0.215
'4:07.219',-0.830,-0.230
'4:07.222',-0.780,-0.235
'4:07.225',-0.750,-0.240
'4:07.228',-0.720,-0.235
'4:07.231',-0.715,-0.210
'4:07.233',-0.715,-0.200
'4:07.236',-0.715,-0.185
'4:07.239',-0.710,-0.155
'4:07.242',-0.715,-0.130
'4:07.244',-0.700,-0.115
'4:07.247',-0.685,-0.105
'4:07.250',-0.670,-0.110
'4:07.253',-0.645,-0.125
'4:07.256',-0.595,-0.150
'4:07.258',-0.535,-0.195
'4:07.261',-0.440,-0.245
'4:07.264',-0.325,-0.305
'4:07.267',-0.220,-0.380
'4:07.269',-0.125,-0.485
'4:07.272',-0.070,-0.570
'4:07.275',-0.070,-0.640
'4:07.278',-0.075,-0.680
'4:07.281',-0.085,-0.690
'4:07.283',-0.100,-0.675
'4:07.286',-0.110,-0.670
'4:07.289',-0.105,-0.670
'4:07.292',-0.100,-0.655
'4:07.294',-0.090,-0.650
'4:07.297',-0.070,-0.665
'4:07.300',-0.055,-0.660
'4:07.303',-0.045,-0.660
'4:07.306',-0.035,-0.685
'4:07.308',-0.030,-0.685
'4:07.311',-0.020,-0.690
'4:07.314',-0.010,-0.715
'4:07.317',0.000,-0.695
'4:07.319',0.015,-0.700
'4:07.322',0.025,-0.695
'4:07.325',0.040,-0.705
'4:07.328',0.065,-0.695
'4:07.331',0.075,-0.680
'4:07.333',0.080,-0.705
'4:07.336',0.090,-0.710
'4:07.339',0.110,-0.725
'4:07.342',0.105,-0.740
'4:07.344',0.115,-0.745
'4:07.347',0.125,-0.755
'4:07.350',0.145,-0.760
'4:07.353',0.145,-0.760
'4:07.356',0.175,-0.750
'4:07.358',0.200,-0.750
'4:07.361',0.210,-0.750
'4:07.364',0.245,-0.745
'4:07.367',0.265,-0.765
'4:07.369',0.285,-0.765
'4:07.372',0.305,-0.780
'4:07.375',0.305,-0.805
'4:07.378',0.315,-0.815
'4:07.381',0.330,-0.820
'4:07.383',0.355,-0.825
'4:07.386',0.370,-0.815
'4:07.389',0.390,-0.815
'4:07.392',0.410,-0.815
'4:07.394',0.410,-0.825
'4:07.397',0.440,-0.830
'4:07.400',0.455,-0.845
'4:07.403',0.470,-0.845
'4:07.406',0.480,-0.870
'4:07.408',0.465,-0.880
'4:07.411',0.455,-0.880
'4:07.414',0.460,-0.900
'4:07.417',0.445,-0.900
'4:07.419',0.445,-0.915
'4:07.422',0.435,-0.895
'4:07.425',0.430,-0.885
'4:07.428',0.415,-0.900
'4:07.431',0.400,-0.880
'4:07.433',0.395,-0.895
'4:07.436',0.370,-0.895
'4:07.439',0.345,-0.905
'4:07.442',0.310,-0.910
'4:07.444',0.285,-0.925
'4:07.447',0.255,-0.915
'4:07.450',0.230,-0.895
'4:07.453',0.195,-0.895
'4:07.456',0.185,-0.860
'4:07.458',0.150,-0.855
'4:07.461',0.130,-0.840
'4:07.464',0.125,-0.830
'4:07.467',0.105,-0.830
'4:07.469',0.075,-0.825
'4:07.472',0.060,-0.820
'4:07.475',0.030,-0.825
'4:07.478',0.000,-0.820
'4:07.481',-0.025,-0.820
'4:07.483',-0.045,-0.800
'4:07.486',-0.075,-0.795
'4:07.489',-0.080,-0.785
'4:07.492',-0.090,-0.770
'4:07.494',-0.100,-0.765
'4:07.497',-0.110,-0.750
'4:07.500',-0.115,-0.750
'4:07.503',-0.125,-0.745
'4:07.506',-0.140,-0.745
'4:07.508',-0.160,-0.745
'4:07.511',-0.180,-0.755
'4:07.514',-0.205,-0.755
'4:07.517',-0.220,-0.735
'4:07.519',-0.250,-0.720
'4:07.522',-0.255,-0.710
'4:07.525',-0.265,-0.690
'4:07.528',-0.275,-0.690
'4:07.531',-0.290,-0.680
'4:07.533',-0.290,-0.675
'4:07.536',-0.295,-0.665
'4:07.539',-0.310,-0.675
'4:07.542',-0.320,-0.665
'4:07.544',-0.335,-0.675
'4:07.547',-0.350,-0.655
'4:07.550',-0.350,-0.650
'4:07.553',-0.365,-0.630
'4:07.556',-0.370,-0.615
'4:07.558',-0.380,-0.610
'4:07.561',-0.380,-0.605
'4:07.564',-0.385,-0.590
'4:07.567',-0.385,-0.600
'4:07.569',-0.390,-0.580
'4:07.572',-0.400,-0.590
'4:07.575',-0.400,-0.595
'4:07.578',-0.415,-0.595
'4:07.581',-0.420,-0.595
'4:07.583',-0.430,-0.595
'4:07.586',-0.435,-0.580
'4:07.589',-0.430,-0.585
'4:07.592',-0.430,-0.565
'4:07.594',-0.430,-0.550
'4:07.597',-0.415,-0.555
'4:07.600',-0.425,-0.560
'4:07.603',-0.430,-0.555
'4:07.606',-0.415,-0.555
'4:07.608',-0.415,-0.565
'4:07.611',-0.430,-0.575
'4:07.614',-0.445,-0.585
'4:07.617',-0.450,-0.575
'4:07.619',-0.450,-0.570
'4:07.622',-0.445,-0.565
'4:07.625',-0.435,-0.555
'4:07.628',-0.420,-0.545
'4:07.631',-0.415,-0.540
'4:07.633',-0.415,-0.535
'4:07.636',-0.415,-0.545
'4:07.639',-0.425,-0.555
'4:07.642',-0.415,-0.555
'4:07.644',-0.435,-0.570
'4:07.647',-0.440,-0.580
'4:07.650',-0.445,-0.565
'4:07.653',-0.445,-0.555
'4:07.656',-0.445,-0.555
'4:07.658',-0.440,-0.540
'4:07.661',-0.450,-0.540
'4:07.664',-0.435,-0.535
'4:07.667',-0.440,-0.545
'4:07.669',-0.440,-0.535
'4:07.672',-0.450,-0.540
'4:07.675',-0.435,-0.545
'4:07.678',-0.455,-0.555
'4:07.681',-0.465,-0.550
'4:07.683',-0.470,-0.560
'4:07.686',-0.470,-0.550
'4:07.689',-0.470,-0.545
'4:07.692',-0.465,-0.540
'4:07.694',-0.455,-0.535
'4:07.697',-0.445,-0.525
'4:07.700',-0.430,-0.525
'4:07.703',-0.430,-0.540
'4:07.706',-0.435,-0.550
'4:07.708',-0.435,-0.550
'4:07.711',-0.450,-0.560
'4:07.714',-0.460,-0.560
'4:07.717',-0.470,-0.570
'4:07.719',-0.465,-0.560
'4:07.722',-0.460,-0.545
'4:07.725',-0.455,-0.545
'4:07.728',-0.450,-0.540
'4:07.731',-0.435,-0.535
'4:07.733',-0.435,-0.530
'4:07.736',-0.430,-0.530
'4:07.739',-0.440,-0.545
'4:07.742',-0.455,-0.555
'4:07.744',-0.455,-0.555
'4:07.747',-0.475,-0.555
'4:07.750',-0.490,-0.550
'4:07.753',-0.480,-0.550
'4:07.756',-0.470,-0.545
'4:07.758',-0.470,-0.545
'4:07.761',-0.460,-0.520
'4:07.764',-0.445,-0.520
'4:07.767',-0.450,-0.525
'4:07.769',-0.440,-0.520
'4:07.772',-0.430,-0.535
'4:07.775',-0.435,-0.545
'4:07.778',-0.445,-0.550
'4:07.781',-0.455,-0.550
'4:07.783',-0.475,-0.550
'4:07.786',-0.475,-0.550
'4:07.789',-0.480,-0.545
'4:07.792',-0.470,-0.535
'4:07.794',-0.460,-0.525
'4:07.797',-0.445,-0.530
'4:07.800',-0.445,-0.525
'4:07.803',-0.440,-0.530
'4:07.806',-0.435,-0.530
'4:07.808',-0.445,-0.540
'4:07.811',-0.450,-0.545
'4:07.814',-0.450,-0.550
'4:07.817',-0.460,-0.550
'4:07.819',-0.465,-0.545
'4:07.822',-0.460,-0.535
'4:07.825',-0.450,-0.525
'4:07.828',-0.445,-0.520
'4:07.831',-0.440,-0.505
'4:07.833',-0.445,-0.515
'4:07.836',-0.435,-0.525
'4:07.839',-0.455,-0.535
'4:07.842',-0.460,-0.540
'4:07.844',-0.460,-0.540
'4:07.847',-0.465,-0.545
'4:07.850',-0.460,-0.550
'4:07.853',-0.465,-0.535
'4:07.856',-0.455,-0.530
'4:07.858',-0.455,-0.520
'4:07.861',-0.440,-0.525
'4:07.864',-0.420,-0.525
'4:07.867',-0.420,-0.525
'4:07.869',-0.410,-0.535
'4:07.872',-0.410,-0.515
'4:07.875',-0.405,-0.520
'4:07.878',-0.405,-0.535
'4:07.881',-0.410,-0.525
'4:07.883',-0.410,-0.525
'4:07.886',-0.410,-0.510
'4:07.889',-0.410,-0.500
'4:07.892',-0.390,-0.500
'4:07.894',-0.365,-0.490
'4:07.897',-0.345,-0.495
'4:07.900',-0.335,-0.515
'4:07.903',-0.340,-0.520
'4:07.906',-0.350,-0.540
'4:07.908',-0.370,-0.565
'4:07.911',-0.395,-0.580
'4:07.914',-0.410,-0.585
'4:07.917',-0.410,-0.585
'4:07.919',-0.425,-0.590
'4:07.922',-0.415,-0.565
'4:07.925',-0.415,-0.565
'4:07.928',-0.420,-0.545
'4:07.931',-0.415,-0.545
'4:07.933',-0.415,-0.555
'4:07.936',-0.410,-0.550
'4:07.939',-0.420,-0.550
'4:07.942',-0.425,-0.560
'4:07.944',-0.445,-0.570
'4:07.947',-0.455,-0.560
'4:07.950',-0.470,-0.555
'4:07.953',-0.475,-0.540
'4:07.956',-0.495,-0.530
'4:07.958',-0.465,-0.535
'4:07.961',-0.460,-0.525
'4:07.964',-0.460,-0.515
'4:07.967',-0.455,-0.520
'4:07.969',-0.460,-0.520
'4:07.972',-0.460,-0.535
'4:07.975',-0.460,-0.540
'4:07.978',-0.465,-0.545
'4:07.981',-0.470,-0.550
'4:07.983',-0.470,-0.555
'4:07.986',-0.475,-0.540
'4:07.989',-0.480,-0.540
'4:07.992',-0.465,-0.535
'4:07.994',-0.465,-0.530
'4:07.997',-0.470,-0.545
'4:08.000',-0.485,-0.530
'4:08.003',-0.500,-0.530
'4:08.006',-0.530,-0.545
'4:08.008',-0.520,-0.530
'4:08.011',-0.490,-0.530
'4:08.014',-0.405,-0.540
'4:08.017',-0.265,-0.555
'4:08.019',-0.095,-0.570
'4:08.022',0.135,-0.615
'4:08.025',0.380,-0.675
'4:08.028',0.620,-0.730
'4:08.031',0.795,-0.790
'4:08.033',0.860,-0.825
'4:08.036',0.760,-0.825
'4:08.039',0.525,-0.790
'4:08.042',0.200,-0.725
'4:08.044',-0.125,-0.630
'4:08.047',-0.365,-0.545
'4:08.050',-0.490,-0.455
'4:08.053',-0.510,-0.425
'4:08.056',-0.450,-0.415
'4:08.058',-0.395,-0.435
'4:08.061',-0.360,-0.495
'4:08.064',-0.330,-0.540
'4:08.067',-0.320,-0.590
'4:08.069',-0.330,-0.600
'4:08.072',-0.360,-0.610
'4:08.075',-0.390,-0.590
'4:08.078',-0.410,-0.585
'4:08.081',-0.430,-0.580
'4:08.083',-0.440,-0.580
'4:08.086',-0.445,-0.565
'4:08.089',-0.435,-0.560
'4:08.092',-0.435,-0.555
'4:08.094',-0.430,-0.550
'4:08.097',-0.425,-0.545
'4:08.100',-0.420,-0.540
'4:08.103',-0.415,-0.540
'4:08.106',-0.425,-0.545
'4:08.108',-0.425,-0.565
'4:08.111',-0.435,-0.565
'4:08.114',-0.435,-0.570
'4:08.117',-0.440,-0.575
'4:08.119',-0.440,-0.565
'4:08.122',-0.435,-0.560
'4:08.125',-0.425,-0.555
'4:08.128',-0.420,-0.550
'4:08.131',-0.415,-0.555
'4:08.133',-0.405,-0.545
'4:08.136',-0.415,-0.560
'4:08.139',-0.420,-0.550
'4:08.142',-0.415,-0.555
'4:08.144',-0.420,-0.555
'4:08.147',-0.425,-0.575
'4:08.150',-0.430,-0.570
'4:08.153',-0.425,-0.570
'4:08.156',-0.420,-0.575
'4:08.158',-0.410,-0.575
'4:08.161',-0.415,-0.555
'4:08.164',-0.405,-0.545
'4:08.167',-0.400,-0.555
'4:08.169',-0.400,-0.555
'4:08.172',-0.405,-0.560
'4:08.175',-0.400,-0.570
'4:08.178',-0.405,-0.580
'4:08.181',-0.410,-0.585
'4:08.183',-0.415,-0.580
'4:08.186',-0.420,-0.580
'4:08.189',-0.410,-0.575
'4:08.192',-0.405,-0.565
'4:08.194',-0.395,-0.570
'4:08.197',-0.390,-0.565
'4:08.200',-0.385,-0.570
'4:08.203',-0.375,-0.570
'4:08.206',-0.395,-0.575
'4:08.208',-0.395,-0.595
'4:08.211',-0.395,-0.590
'4:08.214',-0.395,-0.610
'4:08.217',-0.395,-0.610
'4:08.219',-0.395,-0.605
'4:08.222',-0.390,-0.600
'4:08.225',-0.390,-0.590
'4:08.228',-0.380,-0.585
'4:08.231',-0.370,-0.565
'4:08.233',-0.365,-0.590
'4:08.236',-0.365,-0.585
'4:08.239',-0.360,-0.605
'4:08.242',-0.370,-0.620
'4:08.244',-0.370,-0.620
'4:08.247',-0.370,-0.630
'4:08.250',-0.370,-0.630
'4:08.253',-0.370,-0.620
'4:08.256',-0.370,-0.625
'4:08.258',-0.360,-0.620
'4:08.261',-0.365,-0.615
'4:08.264',-0.345,-0.610
'4:08.267',-0.345,-0.610
'4:08.269',-0.340,-0.615
'4:08.272',-0.335,-0.625
'4:08.275',-0.330,-0.625
'4:08.278',-0.335,-0.640
'4:08.281',-0.340,-0.650
'4:08.283',-0.330,-0.650
'4:08.286',-0.325,-0.650
'4:08.289',-0.330,-0.645
'4:08.292',-0.320,-0.645
'4:08.294',-0.300,-0.625
'4:08.297',-0.295,-0.630
'4:08.300',-0.285,-0.625
'4:08.303',-0.255,-0.635
'4:08.306',-0.260,-0.650
'4:08.308',-0.255,-0.650
'4:08.311',-0.250,-0.665
'4:08.314',-0.240,-0.665
'4:08.317',-0.245,-0.670
'4:08.319',-0.250,-0.670
'4:08.322',-0.235,-0.660
'4:08.325',-0.230,-0.645
'4:08.328',-0.225,-0.640
'4:08.331',-0.215,-0.645
'4:08.333',-0.215,-0.635
'4:08.336',-0.210,-0.645
'4:08.339',-0.220,-0.645
'4:08.342',-0.225,-0.650
'4:08.344',-0.235,-0.655
'4:08.347',-0.245,-0.650
'4:08.350',-0.265,-0.650
'4:08.353',-0.265,-0.640
'4:08.356',-0.270,-0.635
'4:08.358',-0.275,-0.625
'4:08.361',-0.265,-0.610
'4:08.364',-0.270,-0.605
'4:08.367',-0.280,-0.605
'4:08.369',-0.275,-0.600
'4:08.372',-0.290,-0.605
'4:08.375',-0.300,-0.610
'4:08.378',-0.310,-0.620
'4:08.381',-0.320,-0.620
'4:08.383',-0.325,-0.615
'4:08.386',-0.345,-0.610
'4:08.389',-0.335,-0.605
'4:08.392',-0.335,-0.605
'4:08.394',-0.350,-0.590
'4:08.397',-0.335,-0.580
'4:08.400',-0.330,-0.580
'4:08.403',-0.325,-0.585
'4:08.406',-0.330,-0.575
'4:08.408',-0.345,-0.590
'4:08.411',-0.355,-0.595
'4:08.414',-0.365,-0.605
'4:08.417',-0.370,-0.600
'4:08.419',-0.365,-0.600
'4:08.422',-0.370,-0.600
'4:08.425',-0.365,-0.590
'4:08.428',-0.355,-0.585
'4:08.431',-0.350,-0.570
'4:08.433',-0.350,-0.575
'4:08.436',-0.350,-0.575
'4:08.439',-0.360,-0.585
'4:08.442',-0.370,-0.580
'4:08.444',-0.380,-0.595
'4:08.447',-0.385,-0.600
'4:08.450',-0.395,-0.600
'4:08.453',-0.405,-0.590
'4:08.456',-0.400,-0.580
'4:08.458',-0.400,-0.580
'4:08.461',-0.390,-0.570
'4:08.464',-0.385,-0.570
'4:08.467',-0.380,-0.570
'4:08.469',-0.380,-0.570
'4:08.472',-0.380,-0.580
'4:08.475',-0.380,-0.585
'4:08.478',-0.390,-0.590
'4:08.481',-0.400,-0.590
'4:08.483',-0.410,-0.590
'4:08.486',-0.410,-0.600
'4:08.489',-0.405,-0.585
'4:08.492',-0.405,-0.580
'4:08.494',-0.400,-0.570
'4:08.497',-0.395,-0.565
'4:08.500',-0.395,-0.565
'4:08.503',-0.400,-0.565
'4:08.506',-0.395,-0.575
'4:08.508',-0.405,-0.575
'4:08.511',-0.405,-0.590
'4:08.514',-0.410,-0.590
'4:08.517',-0.405,-0.590
'4:08.519',-0.400,-0.580
'4:08.522',-0.400,-0.590
'4:08.525',-0.390,-0.575
'4:08.528',-0.375,-0.565
'4:08.531',-0.360,-0.555
'4:08.533',-0.350,-0.550
'4:08.536',-0.345,-0.545
'4:08.539',-0.340,-0.550
'4:08.542',-0.350,-0.545
'4:08.544',-0.355,-0.545
'4:08.547',-0.360,-0.545
'4:08.550',-0.350,-0.545
'4:08.553',-0.345,-0.555
'4:08.556',-0.325,-0.540
'4:08.558',-0.315,-0.550
'4:08.561',-0.305,-0.555
'4:08.564',-0.310,-0.555
'4:08.567',-0.320,-0.575
'4:08.569',-0.325,-0.585
'4:08.572',-0.345,-0.595
'4:08.575',-0.355,-0.610
'4:08.578',-0.365,-0.615
'4:08.581',-0.375,-0.620
'4:08.583',-0.390,-0.620
'4:08.586',-0.390,-0.610
'4:08.589',-0.400,-0.600
'4:08.592',-0.400,-0.600
'4:08.594',-0.400,-0.580
'4:08.597',-0.395,-0.580
'4:08.600',-0.395,-0.585
'4:08.603',-0.400,-0.585
'4:08.606',-0.405,-0.580
'4:08.608',-0.420,-0.590
'4:08.611',-0.435,-0.595
'4:08.614',-0.450,-0.580
'4:08.617',-0.460,-0.585
'4:08.619',-0.470,-0.570
'4:08.622',-0.460,-0.560
'4:08.625',-0.450,-0.555
'4:08.628',-0.435,-0.555
'4:08.631',-0.425,-0.555
'4:08.633',-0.425,-0.555
'4:08.636',-0.425,-0.555
'4:08.639',-0.420,-0.565
'4:08.642',-0.435,-0.575
'4:08.644',-0.440,-0.580
'4:08.647',-0.445,-0.580
'4:08.650',-0.450,-0.585
'4:08.653',-0.440,-0.575
'4:08.656',-0.440,-0.575
'4:08.658',-0.430,-0.575
'4:08.661',-0.430,-0.575
'4:08.664',-0.430,-0.560
'4:08.667',-0.435,-0.555
'4:08.669',-0.460,-0.565
'4:08.672',-0.480,-0.560
'4:08.675',-0.490,-0.555
'4:08.678',-0.460,-0.545
'4:08.681',-0.405,-0.550
'4:08.683',-0.310,-0.560
'4:08.686',-0.175,-0.575
'4:08.689',0.000,-0.605
'4:08.692',0.195,-0.655
'4:08.694',0.395,-0.705
'4:08.697',0.600,-0.765
'4:08.700',0.720,-0.815
'4:08.703',0.750,-0.845
'4:08.706',0.640,-0.840
'4:08.708',0.425,-0.830
'4:08.711',0.145,-0.770
'4:08.714',-0.125,-0.695
'4:08.717',-0.330,-0.610
'4:08.719',-0.440,-0.535
'4:08.722',-0.445,-0.495
'4:08.725',-0.395,-0.490
'4:08.728',-0.340,-0.525
'4:08.731',-0.300,-0.560
'4:08.733',-0.275,-0.605
'4:08.736',-0.270,-0.630
'4:08.739',-0.295,-0.655
'4:08.742',-0.330,-0.650
'4:08.744',-0.355,-0.630
'4:08.747',-0.385,-0.615
'4:08.750',-0.400,-0.605
'4:08.753',-0.405,-0.600
'4:08.756',-0.410,-0.600
'4:08.758',-0.400,-0.580
'4:08.761',-0.395,-0.585
'4:08.764',-0.390,-0.565
'4:08.767',-0.375,-0.585
'4:08.769',-0.375,-0.580
'4:08.772',-0.390,-0.575
'4:08.775',-0.390,-0.590
'4:08.778',-0.395,-0.590
'4:08.781',-0.410,-0.590
'4:08.783',-0.405,-0.605
'4:08.786',-0.415,-0.600
'4:08.789',-0.410,-0.590
'4:08.792',-0.400,-0.580
'4:08.794',-0.395,-0.585
'4:08.797',-0.390,-0.580
'4:08.800',-0.375,-0.580
'4:08.803',-0.380,-0.585
'4:08.806',-0.380,-0.570
'4:08.808',-0.385,-0.595
'4:08.811',-0.390,-0.600
'4:08.814',-0.395,-0.610
'4:08.817',-0.405,-0.600
'4:08.819',-0.395,-0.605
'4:08.822',-0.395,-0.590
'4:08.825',-0.380,-0.585
'4:08.828',-0.380,-0.580
'4:08.831',-0.375,-0.580
'4:08.833',-0.370,-0.590
'4:08.836',-0.365,-0.595
'4:08.839',-0.365,-0.605
'4:08.842',-0.380,-0.610
'4:08.844',-0.375,-0.615
'4:08.847',-0.380,-0.625
'4:08.850',-0.375,-0.630
'4:08.853',-0.385,-0.620
'4:08.856',-0.380,-0.625
'4:08.858',-0.370,-0.615
'4:08.861',-0.360,-0.615
'4:08.864',-0.360,-0.615
'4:08.867',-0.355,-0.605
'4:08.869',-0.365,-0.605
'4:08.872',-0.355,-0.610
'4:08.875',-0.360,-0.625
'4:08.878',-0.380,-0.630
'4:08.881',-0.385,-0.645
'4:08.883',-0.380,-0.635
'4:08.886',-0.380,-0.635
'4:08.889',-0.380,-0.630
'4:08.892',-0.375,-0.630
'4:08.894',-0.370,-0.625
'4:08.897',-0.360,-0.610
'4:08.900',-0.360,-0.620
'4:08.903',-0.360,-0.630
'4:08.906',-0.350,-0.630
'4:08.908',-0.360,-0.640
'4:08.911',-0.375,-0.645
'4:08.914',-0.390,-0.655
'4:08.917',-0.375,-0.660
'4:08.919',-0.375,-0.650
'4:08.922',-0.385,-0.640
'4:08.925',-0.375,-0.635
'4:08.928',-0.360,-0.630
'4:08.931',-0.360,-0.625
'4:08.933',-0.365,-0.630
'4:08.936',-0.350,-0.635
'4:08.939',-0.355,-0.640
'4:08.942',-0.360,-0.655
'4:08.944',-0.365,-0.660
'4:08.947',-0.375,-0.670
'4:08.950',-0.375,-0.665
'4:08.953',-0.375,-0.655
'4:08.956',-0.370,-0.655
'4:08.958',-0.360,-0.655
'4:08.961',-0.355,-0.635
'4:08.964',-0.340,-0.645
'4:08.967',-0.340,-0.645
'4:08.969',-0.320,-0.655
'4:08.972',-0.310,-0.670
'4:08.975',-0.305,-0.675
'4:08.978',-0.310,-0.690
'4:08.981',-0.310,-0.695
'4:08.983',-0.300,-0.685
'4:08.986',-0.305,-0.695
'4:08.989',-0.295,-0.695
'4:08.992',-0.295,-0.690
'4:08.994',-0.285,-0.680
'4:08.997',-0.270,-0.675
'4:09.000',-0.265,-0.680
'4:09.003',-0.270,-0.680
'4:09.006',-0.270,-0.675
'4:09.008',-0.275,-0.690
'4:09.011',-0.290,-0.690
'4:09.014',-0.295,-0.695
'4:09.017',-0.295,-0.695
'4:09.019',-0.305,-0.685
'4:09.022',-0.315,-0.670
'4:09.025',-0.310,-0.670
'4:09.028',-0.305,-0.660
'4:09.031',-0.310,-0.645
'4:09.033',-0.300,-0.650
'4:09.036',-0.310,-0.650
'4:09.039',-0.315,-0.645
'4:09.042',-0.330,-0.645
'4:09.044',-0.330,-0.655
'4:09.047',-0.345,-0.665
'4:09.050',-0.350,-0.655
'4:09.053',-0.355,-0.655
'4:09.056',-0.365,-0.635
'4:09.058',-0.355,-0.630
'4:09.061',-0.355,-0.620
'4:09.064',-0.350,-0.620
'4:09.067',-0.345,-0.620
'4:09.069',-0.350,-0.610
'4:09.072',-0.340,-0.625
'4:09.075',-0.350,-0.635
'4:09.078',-0.355,-0.635
'4:09.081',-0.365,-0.630
'4:09.083',-0.365,-0.645
'4:09.086',-0.370,-0.645
'4:09.089',-0.360,-0.630
'4:09.092',-0.365,-0.630
'4:09.094',-0.360,-0.620
'4:09.097',-0.355,-0.600
'4:09.100',-0.355,-0.610
'4:09.103',-0.355,-0.615
'4:09.106',-0.350,-0.625
'4:09.108',-0.355,-0.620
'4:09.111',-0.375,-0.630
'4:09.114',-0.380,-0.640
'4:09.117',-0.385,-0.635
'4:09.119',-0.390,-0.640
'4:09.122',-0.385,-0.645
'4:09.125',-0.385,-0.630
'4:09.128',-0.380,-0.625
'4:09.131',-0.365,-0.610
'4:09.133',-0.360,-0.605
'4:09.136',-0.365,-0.605
'4:09.139',-0.360,-0.615
'4:09.142',-0.370,-0.625
'4:09.144',-0.375,-0.625
'4:09.147',-0.385,-0.635
'4:09.150',-0.390,-0.630
'4:09.153',-0.395,-0.640
'4:09.156',-0.390,-0.625
'4:09.158',-0.385,-0.620
'4:09.161',-0.380,-0.610
'4:09.164',-0.375,-0.605
'4:09.167',-0.380,-0.605
'4:09.169',-0.380,-0.620
'4:09.172',-0.370,-0.620
'4:09.175',-0.370,-0.620
'4:09.178',-0.375,-0.640
'4:09.181',-0.370,-0.640
'4:09.183',-0.365,-0.640
'4:09.186',-0.360,-0.630
'4:09.189',-0.350,-0.630
'4:09.192',-0.340,-0.620
'4:09.194',-0.325,-0.620
'4:09.197',-0.315,-0.595
'4:09.200',-0.325,-0.595
'4:09.203',-0.320,-0.600
'4:09.206',-0.315,-0.590
'4:09.208',-0.310,-0.600
'4:09.211',-0.310,-0.615
'4:09.214',-0.315,-0.620
'4:09.217',-0.300,-0.625
'4:09.219',-0.290,-0.625
'4:09.222',-0.295,-0.635
'4:09.225',-0.295,-0.640
'4:09.228',-0.305,-0.645
'4:09.231',-0.315,-0.650
'4:09.233',-0.330,-0.645
'4:09.236',-0.330,-0.670
'4:09.239',-0.335,-0.675
'4:09.242',-0.335,-0.680
'4:09.244',-0.350,-0.685
'4:09.247',-0.360,-0.690
'4:09.250',-0.375,-0.675
'4:09.253',-0.375,-0.665
'4:09.256',-0.380,-0.670
'4:09.258',-0.385,-0.665
'4:09.261',-0.385,-0.650
'4:09.264',-0.385,-0.650
'4:09.267',-0.390,-0.630
'4:09.269',-0.385,-0.640
'4:09.272',-0.400,-0.635
'4:09.275',-0.415,-0.640
'4:09.278',-0.425,-0.635
'4:09.281',-0.435,-0.640
'4:09.283',-0.425,-0.645
'4:09.286',-0.435,-0.640
'4:09.289',-0.425,-0.630
'4:09.292',-0.425,-0.630
'4:09.294',-0.415,-0.620
'4:09.297',-0.415,-0.610
'4:09.300',-0.405,-0.620
'4:09.303',-0.410,-0.625
'4:09.306',-0.410,-0.625
'4:09.308',-0.410,-0.625
'4:09.311',-0.415,-0.630
'4:09.314',-0.425,-0.645
'4:09.317',-0.435,-0.650
'4:09.319',-0.430,-0.640
'4:09.322',-0.435,-0.630
'4:09.325',-0.430,-0.635
'4:09.328',-0.440,-0.625
'4:09.331',-0.450,-0.615
'4:09.333',-0.460,-0.605
'4:09.336',-0.460,-0.610
'4:09.339',-0.430,-0.590
'4:09.342',-0.375,-0.590
'4:09.344',-0.290,-0.605
'4:09.347',-0.190,-0.640
'4:09.350',-0.035,-0.670
'4:09.353',0.135,-0.715
'4:09.356',0.335,-0.775
'4:09.358',0.525,-0.840
'4:09.361',0.680,-0.890
'4:09.364',0.760,-0.915
'4:09.367',0.705,-0.915
'4:09.369',0.545,-0.900
'4:09.372',0.300,-0.860
'4:09.375',0.020,-0.780
'4:09.378',-0.215,-0.715
'4:09.381',-0.380,-0.625
'4:09.383',-0.430,-0.580
'4:09.386',-0.430,-0.545
'4:09.389',-0.380,-0.550
'4:09.392',-0.320,-0.595
'4:09.394',-0.280,-0.635
'4:09.397',-0.270,-0.675
'4:09.400',-0.285,-0.695
'4:09.403',-0.300,-0.705
'4:09.406',-0.315,-0.690
'4:09.408',-0.345,-0.685
'4:09.411',-0.370,-0.675
'4:09.414',-0.390,-0.670
'4:09.417',-0.385,-0.670
'4:09.419',-0.390,-0.660
'4:09.422',-0.395,-0.660
'4:09.425',-0.385,-0.645
'4:09.428',-0.385,-0.645
'4:09.431',-0.375,-0.640
'4:09.433',-0.380,-0.635
'4:09.436',-0.370,-0.635
'4:09.439',-0.385,-0.635
'4:09.442',-0.390,-0.645
'4:09.444',-0.380,-0.650
'4:09.447',-0.395,-0.650
'4:09.450',-0.395,-0.665
'4:09.453',-0.400,-0.655
'4:09.456',-0.390,-0.660
'4:09.458',-0.380,-0.645
'4:09.461',-0.385,-0.625
'4:09.464',-0.375,-0.630
'4:09.467',-0.370,-0.635
'4:09.469',-0.370,-0.635
'4:09.472',-0.370,-0.640
'4:09.475',-0.375,-0.645
'4:09.478',-0.385,-0.655
'4:09.481',-0.390,-0.670
'4:09.483',-0.395,-0.660
'4:09.486',-0.380,-0.650
'4:09.489',-0.385,-0.655
'4:09.492',-0.370,-0.655
'4:09.494',-0.370,-0.645
'4:09.497',-0.360,-0.640
'4:09.500',-0.360,-0.640
'4:09.503',-0.350,-0.645
'4:09.506',-0.365,-0.645
'4:09.508',-0.365,-0.655
'4:09.511',-0.375,-0.660
'4:09.514',-0.370,-0.675
'4:09.517',-0.375,-0.665
'4:09.519',-0.365,-0.665
'4:09.522',-0.365,-0.665
'4:09.525',-0.370,-0.660
'4:09.528',-0.355,-0.650
'4:09.531',-0.350,-0.640
'4:09.533',-0.350,-0.650
'4:09.536',-0.345,-0.650
'4:09.539',-0.340,-0.655
'4:09.542',-0.340,-0.680
'4:09.544',-0.350,-0.660
'4:09.547',-0.365,-0.680
'4:09.550',-0.360,-0.680
'4:09.553',-0.375,-0.685
'4:09.556',-0.365,-0.670
'4:09.558',-0.370,-0.675
'4:09.561',-0.360,-0.665
'4:09.564',-0.345,-0.660
'4:09.567',-0.340,-0.665
'4:09.569',-0.335,-0.670
'4:09.572',-0.340,-0.670
'4:09.575',-0.345,-0.685
'4:09.578',-0.345,-0.695
'4:09.581',-0.355,-0.710
'4:09.583',-0.350,-0.705
'4:09.586',-0.360,-0.705
'4:09.589',-0.355,-0.705
'4:09.592',-0.350,-0.695
'4:09.594',-0.340,-0.685
'4:09.597',-0.330,-0.685
'4:09.600',-0.325,-0.680
'4:09.603',-0.325,-0.690
'4:09.606',-0.325,-0.690
'4:09.608',-0.340,-0.690
'4:09.611',-0.345,-0.705
'4:09.614',-0.345,-0.715
'4:09.617',-0.350,-0.710
'4:09.619',-0.350,-0.715
'4:09.622',-0.345,-0.720
'4:09.625',-0.335,-0.710
'4:09.628',-0.320,-0.705
'4:09.631',-0.305,-0.705
'4:09.633',-0.295,-0.705
'4:09.636',-0.285,-0.715
'4:09.639',-0.285,-0.725
'4:09.642',-0.285,-0.730
'4:09.644',-0.275,-0.745
'4:09.647',-0.275,-0.745
'4:09.650',-0.280,-0.750
'4:09.653',-0.280,-0.750
'4:09.656',-0.275,-0.745
'4:09.658',-0.270,-0.745
'4:09.661',-0.270,-0.735
'4:09.664',-0.250,-0.740
'4:09.667',-0.250,-0.730
'4:09.669',-0.245,-0.735
'4:09.672',-0.245,-0.740
'4:09.675',-0.260,-0.740
'4:09.678',-0.275,-0.745
'4:09.681',-0.285,-0.750
'4:09.683',-0.290,-0.740
'4:09.686',-0.305,-0.740
'4:09.689',-0.295,-0.735
'4:09.692',-0.310,-0.715
'4:09.694',-0.300,-0.720
'4:09.697',-0.295,-0.705
'4:09.700',-0.305,-0.700
'4:09.703',-0.305,-0.700
'4:09.706',-0.320,-0.700
'4:09.708',-0.320,-0.695
'4:09.711',-0.335,-0.700
'4:09.714',-0.345,-0.705
'4:09.717',-0.360,-0.715
'4:09.719',-0.365,-0.695
'4:09.722',-0.360,-0.695
'4:09.725',-0.365,-0.680
'4:09.728',-0.360,-0.675
'4:09.731',-0.355,-0.670
'4:09.733',-0.345,-0.665
'4:09.736',-0.355,-0.675
'4:09.739',-0.360,-0.670
'4:09.742',-0.360,-0.675
'4:09.744',-0.360,-0.685
'4:09.747',-0.370,-0.685
'4:09.750',-0.375,-0.695
'4:09.753',-0.380,-0.680
'4:09.756',-0.375,-0.670
'4:09.758',-0.375,-0.670
'4:09.761',-0.375,-0.660
'4:09.764',-0.360,-0.655
'4:09.767',-0.365,-0.650
'4:09.769',-0.360,-0.650
'4:09.772',-0.360,-0.665
'4:09.775',-0.365,-0.665
'4:09.778',-0.375,-0.675
'4:09.781',-0.380,-0.680
'4:09.783',-0.380,-0.675
'4:09.786',-0.390,-0.670
'4:09.789',-0.390,-0.665
'4:09.792',-0.385,-0.665
'4:09.794',-0.375,-0.655
'4:09.797',-0.375,-0.650
'4:09.800',-0.365,-0.650
'4:09.803',-0.375,-0.660
'4:09.806',-0.380,-0.660
'4:09.808',-0.390,-0.660
'4:09.811',-0.395,-0.675
'4:09.814',-0.400,-0.675
'4:09.817',-0.400,-0.670
'4:09.819',-0.400,-0.665
'4:09.822',-0.395,-0.660
'4:09.825',-0.390,-0.660
'4:09.828',-0.390,-0.660
'4:09.831',-0.370,-0.645
'4:09.833',-0.370,-0.640
'4:09.836',-0.370,-0.655
'4:09.839',-0.385,-0.645
'4:09.842',-0.395,-0.665
'4:09.844',-0.395,-0.670
'4:09.847',-0.405,-0.680
'4:09.850',-0.405,-0.665
'4:09.853',-0.385,-0.670
'4:09.856',-0.380,-0.660
'4:09.858',-0.380,-0.660
'4:09.861',-0.370,-0.645
'4:09.864',-0.360,-0.640
'4:09.867',-0.350,-0.640
'4:09.869',-0.325,-0.650
'4:09.872',-0.335,-0.645
'4:09.875',-0.330,-0.660
'4:09.878',-0.330,-0.650
'4:09.881',-0.330,-0.650
'4:09.883',-0.335,-0.650
'4:09.886',-0.340,-0.650
'4:09.889',-0.320,-0.645
'4:09.892',-0.310,-0.650
'4:09.894',-0.295,-0.655
'4:09.897',-0.300,-0.665
'4:09.900',-0.305,-0.665
'4:09.903',-0.310,-0.690
'4:09.906',-0.330,-0.710
'4:09.908',-0.340,-0.715
'4:09.911',-0.345,-0.720
'4:09.914',-0.355,-0.720
'4:09.917',-0.370,-0.720
'4:09.919',-0.375,-0.705
'4:09.922',-0.375,-0.705
'4:09.925',-0.365,-0.690
'4:09.928',-0.370,-0.690
'4:09.931',-0.370,-0.680
'4:09.933',-0.375,-0.680
'4:09.936',-0.385,-0.670
'4:09.939',-0.405,-0.665
'4:09.942',-0.410,-0.660
'4:09.944',-0.425,-0.665
'4:09.947',-0.435,-0.665
'4:09.950',-0.440,-0.675
'4:09.953',-0.445,-0.655
'4:09.956',-0.440,-0.655
'4:09.958',-0.435,-0.650
'4:09.961',-0.430,-0.645
'4:09.964',-0.420,-0.635
'4:09.967',-0.410,-0.640
'4:09.969',-0.420,-0.655
'4:09.972',-0.405,-0.650
'4:09.975',-0.405,-0.660
'4:09.978',-0.415,-0.665
'4:09.981',-0.415,-0.670
'4:09.983',-0.425,-0.680
'4:09.986',-0.435,-0.660
'4:09.989',-0.420,-0.655
'4:09.992',-0.430,-0.655
'4:09.994',-0.435,-0.650
'4:09.997',-0.455,-0.640
'4:10.000',-0.460,-0.630
'4:10.003',-0.460,-0.630
'4:10.006',-0.420,-0.630
'4:10.008',-0.355,-0.630
'4:10.011',-0.265,-0.650
'4:10.014',-0.140,-0.680
'4:10.017',0.040,-0.730
'4:10.019',0.240,-0.790
'4:10.022',0.450,-0.860
'4:10.025',0.630,-0.930
'4:10.028',0.740,-0.980
'4:10.031',0.730,-0.995
'4:10.033',0.585,-0.955
'4:10.036',0.350,-0.905
'4:10.039',0.080,-0.830
'4:10.042',-0.170,-0.730
'4:10.044',-0.355,-0.655
'4:10.047',-0.440,-0.585
'4:10.050',-0.435,-0.545
'4:10.053',-0.390,-0.555
'4:10.056',-0.330,-0.585
'4:10.058',-0.295,-0.635
'4:10.061',-0.270,-0.685
'4:10.064',-0.275,-0.710
'4:10.067',-0.295,-0.710
'4:10.069',-0.315,-0.715
'4:10.072',-0.330,-0.690
'4:10.075',-0.355,-0.680
'4:10.078',-0.375,-0.670
'4:10.081',-0.380,-0.680
'4:10.083',-0.390,-0.680
'4:10.086',-0.385,-0.680
'4:10.089',-0.390,-0.675
'4:10.092',-0.390,-0.670
'4:10.094',-0.395,-0.660
'4:10.097',-0.390,-0.655
'4:10.100',-0.385,-0.655
'4:10.103',-0.390,-0.655
'4:10.106',-0.385,-0.650
'4:10.108',-0.395,-0.665
'4:10.111',-0.385,-0.660
'4:10.114',-0.390,-0.665
'4:10.117',-0.390,-0.675
'4:10.119',-0.390,-0.670
'4:10.122',-0.390,-0.665
'4:10.125',-0.380,-0.655
'4:10.128',-0.365,-0.655
'4:10.131',-0.360,-0.645
'4:10.133',-0.350,-0.645
'4:10.136',-0.355,-0.650
'4:10.139',-0.360,-0.660
'4:10.142',-0.350,-0.670
'4:10.144',-0.360,-0.665
'4:10.147',-0.355,-0.675
'4:10.150',-0.360,-0.675
'4:10.153',-0.360,-0.680
'4:10.156',-0.370,-0.680
'4:10.158',-0.365,-0.670
'4:10.161',-0.360,-0.660
'4:10.164',-0.340,-0.645
'4:10.167',-0.340,-0.655
'4:10.169',-0.340,-0.660
'4:10.172',-0.340,-0.655
'4:10.175',-0.335,-0.670
'4:10.178',-0.340,-0.670
'4:10.181',-0.360,-0.690
'4:10.183',-0.345,-0.695
'4:10.186',-0.345,-0.685
'4:10.189',-0.355,-0.675
'4:10.192',-0.350,-0.670
'4:10.194',-0.335,-0.670
'4:10.197',-0.330,-0.665
'4:10.200',-0.330,-0.660
'4:10.203',-0.340,-0.660
'4:10.206',-0.330,-0.665
'4:10.208',-0.340,-0.675
'4:10.211',-0.330,-0.685
'4:10.214',-0.340,-0.690
'4:10.217',-0.335,-0.700
'4:10.219',-0.330,-0.695
'4:10.222',-0.335,-0.695
'4:10.225',-0.320,-0.695
'4:10.228',-0.320,-0.680
'4:10.231',-0.320,-0.675
'4:10.233',-0.320,-0.675
'4:10.236',-0.310,-0.690
'4:10.239',-0.315,-0.690
'4:10.242',-0.315,-0.685
'4:10.244',-0.315,-0.700
'4:10.247',-0.330,-0.710
'4:10.250',-0.335,-0.710
'4:10.253',-0.330,-0.710
'4:10.256',-0.330,-0.705
'4:10.258',-0.320,-0.695
'4:10.261',-0.305,-0.695
'4:10.264',-0.310,-0.685
'4:10.267',-0.315,-0.685
'4:10.269',-0.320,-0.700
'4:10.272',-0.310,-0.705
'4:10.275',-0.315,-0.715
'4:10.278',-0.315,-0.720
'4:10.281',-0.330,-0.725
'4:10.283',-0.325,-0.720
'4:10.286',-0.315,-0.730
'4:10.289',-0.320,-0.730
'4:10.292',-0.305,-0.720
'4:10.294',-0.290,-0.715
'4:10.297',-0.280,-0.720
'4:10.300',-0.270,-0.710
'4:10.303',-0.255,-0.725
'4:10.306',-0.245,-0.730
'4:10.308',-0.235,-0.740
'4:10.311',-0.225,-0.745
'4:10.314',-0.235,-0.760
'4:10.317',-0.240,-0.755
'4:10.319',-0.235,-0.760
'4:10.322',-0.245,-0.755
'4:10.325',-0.240,-0.750
'4:10.328',-0.225,-0.745
'4:10.331',-0.225,-0.735
'4:10.333',-0.235,-0.730
'4:10.336',-0.230,-0.730
'4:10.339',-0.235,-0.735
'4:10.342',-0.240,-0.740
'4:10.344',-0.250,-0.735
'4:10.347',-0.270,-0.750
'4:10.350',-0.280,-0.745
'4:10.353',-0.290,-0.740
'4:10.356',-0.295,-0.735
'4:10.358',-0.300,-0.730
'4:10.361',-0.290,-0.700
'4:10.364',-0.295,-0.705
'4:10.367',-0.295,-0.695
'4:10.369',-0.295,-0.705
'4:10.372',-0.305,-0.710
'4:10.375',-0.310,-0.705
'4:10.378',-0.325,-0.710
'4:10.381',-0.335,-0.710
'4:10.383',-0.345,-0.710
'4:10.386',-0.355,-0.700
'4:10.389',-0.360,-0.695
'4:10.392',-0.350,-0.690
'4:10.394',-0.355,-0.685
'4:10.397',-0.345,-0.665
'4:10.400',-0.340,-0.660
'4:10.403',-0.345,-0.665
'4:10.406',-0.335,-0.670
'4:10.408',-0.330,-0.680
'4:10.411',-0.340,-0.685
'4:10.414',-0.345,-0.690
'4:10.417',-0.345,-0.695
'4:10.419',-0.360,-0.690
'4:10.422',-0.360,-0.685
'4:10.425',-0.355,-0.680
'4:10.428',-0.350,-0.665
'4:10.431',-0.345,-0.665
'4:10.433',-0.350,-0.670
'4:10.436',-0.345,-0.665
'4:10.439',-0.345,-0.670
'4:10.442',-0.360,-0.665
'4:10.444',-0.365,-0.690
'4:10.447',-0.360,-0.685
'4:10.450',-0.375,-0.680
'4:10.453',-0.375,-0.680
'4:10.456',-0.385,-0.665
'4:10.458',-0.375,-0.665
'4:10.461',-0.370,-0.665
'4:10.464',-0.365,-0.660
'4:10.467',-0.355,-0.645
'4:10.469',-0.360,-0.660
'4:10.472',-0.365,-0.650
'4:10.475',-0.370,-0.660
'4:10.478',-0.365,-0.675
'4:10.481',-0.375,-0.690
'4:10.483',-0.380,-0.690
'4:10.486',-0.405,-0.675
'4:10.489',-0.395,-0.670
'4:10.492',-0.390,-0.655
'4:10.494',-0.385,-0.660
'4:10.497',-0.380,-0.645
'4:10.500',-0.370,-0.650
'4:10.503',-0.360,-0.655
'4:10.506',-0.360,-0.655
'4:10.508',-0.355,-0.660
'4:10.511',-0.355,-0.675
'4:10.514',-0.350,-0.675
'4:10.517',-0.340,-0.685
'4:10.519',-0.345,-0.675
'4:10.522',-0.345,-0.665
'4:10.525',-0.335,-0.655
'4:10.528',-0.330,-0.645
'4:10.531',-0.320,-0.625
'4:10.533',-0.305,-0.625
'4:10.536',-0.320,-0.630
'4:10.539',-0.310,-0.630
'4:10.542',-0.300,-0.640
'4:10.544',-0.280,-0.650
'4:10.547',-0.295,-0.665
'4:10.550',-0.285,-0.680
'4:10.553',-0.305,-0.685
'4:10.556',-0.320,-0.695
'4:10.558',-0.325,-0.700
'4:10.561',-0.335,-0.690
'4:10.564',-0.335,-0.690
'4:10.567',-0.325,-0.685
'4:10.569',-0.320,-0.695
'4:10.572',-0.325,-0.695
'4:10.575',-0.325,-0.700
'4:10.578',-0.335,-0.695
'4:10.581',-0.345,-0.705
'4:10.583',-0.350,-0.700
'4:10.586',-0.360,-0.695
'4:10.589',-0.375,-0.695
'4:10.592',-0.380,-0.670
'4:10.594',-0.385,-0.670
'4:10.597',-0.395,-0.645
'4:10.600',-0.405,-0.640
'4:10.603',-0.410,-0.630
'4:10.606',-0.415,-0.635
'4:10.608',-0.415,-0.640
'4:10.611',-0.425,-0.650
'4:10.614',-0.420,-0.655
'4:10.617',-0.425,-0.655
'4:10.619',-0.425,-0.655
'4:10.622',-0.430,-0.645
'4:10.625',-0.420,-0.645
'4:10.628',-0.420,-0.640
'4:10.631',-0.405,-0.630
'4:10.633',-0.395,-0.625
'4:10.636',-0.395,-0.635
'4:10.639',-0.415,-0.630
'4:10.642',-0.405,-0.645
'4:10.644',-0.405,-0.660
'4:10.647',-0.420,-0.650
'4:10.650',-0.425,-0.670
'4:10.653',-0.445,-0.660
'4:10.656',-0.475,-0.655
'4:10.658',-0.480,-0.640
'4:10.661',-0.475,-0.620
'4:10.664',-0.415,-0.610
'4:10.667',-0.320,-0.620
'4:10.669',-0.175,-0.640
'4:10.672',-0.005,-0.670
'4:10.675',0.215,-0.735
'4:10.678',0.445,-0.825
'4:10.681',0.660,-0.910
'4:10.683',0.805,-0.975
'4:10.686',0.815,-1.005
'4:10.689',0.680,-0.985
'4:10.692',0.425,-0.915
'4:10.694',0.135,-0.810
'4:10.697',-0.135,-0.690
'4:10.700',-0.320,-0.595
'4:10.703',-0.415,-0.505
'4:10.706',-0.420,-0.480
'4:10.708',-0.360,-0.490
'4:10.711',-0.325,-0.545
'4:10.714',-0.305,-0.620
'4:10.717',-0.300,-0.670
'4:10.719',-0.310,-0.705
'4:10.722',-0.325,-0.720
'4:10.725',-0.350,-0.700
'4:10.728',-0.360,-0.680
'4:10.731',-0.365,-0.665
'4:10.733',-0.370,-0.650
'4:10.736',-0.365,-0.645
'4:10.739',-0.375,-0.655
'4:10.742',-0.380,-0.650
'4:10.744',-0.390,-0.660
'4:10.747',-0.395,-0.675
'4:10.750',-0.405,-0.680
'4:10.753',-0.395,-0.660
'4:10.756',-0.395,-0.650
'4:10.758',-0.385,-0.640
'4:10.761',-0.380,-0.630
'4:10.764',-0.375,-0.640
'4:10.767',-0.370,-0.625
'4:10.769',-0.380,-0.635
'4:10.772',-0.380,-0.635
'4:10.775',-0.375,-0.640
'4:10.778',-0.385,-0.650
'4:10.781',-0.395,-0.660
'4:10.783',-0.400,-0.665
'4:10.786',-0.395,-0.665
'4:10.789',-0.390,-0.660
'4:10.792',-0.390,-0.650
'4:10.794',-0.385,-0.645
'4:10.797',-0.385,-0.650
'4:10.800',-0.370,-0.640
'4:10.803',-0.370,-0.640
'4:10.806',-0.355,-0.645
'4:10.808',-0.365,-0.655
'4:10.811',-0.370,-0.660
'4:10.814',-0.375,-0.670
'4:10.817',-0.380,-0.670
'4:10.819',-0.390,-0.675
'4:10.822',-0.380,-0.660
'4:10.825',-0.380,-0.655
'4:10.828',-0.370,-0.650
'4:10.831',-0.360,-0.645
'4:10.833',-0.360,-0.640
'4:10.836',-0.360,-0.650
'4:10.839',-0.350,-0.655
'4:10.842',-0.365,-0.665
'4:10.844',-0.375,-0.665
'4:10.847',-0.375,-0.675
'4:10.850',-0.380,-0.690
'4:10.853',-0.380,-0.675
'4:10.856',-0.380,-0.675
'4:10.858',-0.365,-0.670
'4:10.861',-0.360,-0.670
'4:10.864',-0.355,-0.665
'4:10.867',-0.345,-0.660
'4:10.869',-0.345,-0.675
'4:10.872',-0.355,-0.670
'4:10.875',-0.360,-0.685
'4:10.878',-0.365,-0.690
'4:10.881',-0.375,-0.695
'4:10.883',-0.375,-0.700
'4:10.886',-0.370,-0.700
'4:10.889',-0.370,-0.700
'4:10.892',-0.360,-0.705
'4:10.894',-0.350,-0.685
'4:10.897',-0.345,-0.670
'4:10.900',-0.330,-0.680
'4:10.903',-0.325,-0.690
'4:10.906',-0.320,-0.685
'4:10.908',-0.330,-0.700
'4:10.911',-0.345,-0.710
'4:10.914',-0.345,-0.720
'4:10.917',-0.345,-0.715
'4:10.919',-0.350,-0.720
'4:10.922',-0.345,-0.715
'4:10.925',-0.340,-0.715
'4:10.928',-0.340,-0.705
'4:10.931',-0.325,-0.705
'4:10.933',-0.310,-0.705
'4:10.936',-0.300,-0.705
'4:10.939',-0.290,-0.710
'4:10.942',-0.295,-0.720
'4:10.944',-0.295,-0.730
'4:10.947',-0.295,-0.735
'4:10.950',-0.290,-0.740
'4:10.953',-0.290,-0.735
'4:10.956',-0.275,-0.740
'4:10.958',-0.270,-0.735
'4:10.961',-0.260,-0.720
'4:10.964',-0.255,-0.730
'4:10.967',-0.245,-0.725
'4:10.969',-0.245,-0.720
'4:10.972',-0.240,-0.715
'4:10.975',-0.250,-0.730
'4:10.978',-0.260,-0.735
'4:10.981',-0.265,-0.740
'4:10.983',-0.275,-0.745
'4:10.986',-0.285,-0.735
'4:10.989',-0.300,-0.725
'4:10.992',-0.295,-0.710
'4:10.994',-0.305,-0.705
'4:10.997',-0.315,-0.690
'4:11.000',-0.310,-0.685
'4:11.003',-0.320,-0.690
'4:11.006',-0.320,-0.685
'4:11.008',-0.325,-0.690
'4:11.011',-0.335,-0.700
'4:11.014',-0.345,-0.690
'4:11.017',-0.355,-0.690
'4:11.019',-0.375,-0.680
'4:11.022',-0.370,-0.675
'4:11.025',-0.380,-0.660
'4:11.028',-0.370,-0.665
'4:11.031',-0.365,-0.650
'4:11.033',-0.350,-0.630
'4:11.036',-0.355,-0.645
'4:11.039',-0.350,-0.660
'4:11.042',-0.360,-0.640
'4:11.044',-0.365,-0.655
'4:11.047',-0.370,-0.655
'4:11.050',-0.370,-0.660
'4:11.053',-0.385,-0.665
'4:11.056',-0.395,-0.660
'4:11.058',-0.385,-0.640
'4:11.061',-0.390,-0.645
'4:11.064',-0.380,-0.630
'4:11.067',-0.370,-0.625
'4:11.069',-0.375,-0.640
'4:11.072',-0.375,-0.650
'4:11.075',-0.380,-0.660
'4:11.078',-0.385,-0.655
'4:11.081',-0.395,-0.660
'4:11.083',-0.390,-0.665
'4:11.086',-0.405,-0.645
'4:11.089',-0.405,-0.645
'4:11.092',-0.395,-0.645
'4:11.094',-0.395,-0.640
'4:11.097',-0.400,-0.640
'4:11.100',-0.390,-0.630
'4:11.103',-0.395,-0.635
'4:11.106',-0.380,-0.645
'4:11.108',-0.380,-0.630
'4:11.111',-0.390,-0.660
'4:11.114',-0.400,-0.650
'4:11.117',-0.410,-0.665
'4:11.119',-0.420,-0.645
'4:11.122',-0.415,-0.650
'4:11.125',-0.410,-0.645
'4:11.128',-0.405,-0.625
'4:11.131',-0.400,-0.630
'4:11.133',-0.390,-0.620
'4:11.136',-0.395,-0.620
'4:11.139',-0.385,-0.630
'4:11.142',-0.400,-0.625
'4:11.144',-0.405,-0.630
'4:11.147',-0.400,-0.635
'4:11.150',-0.400,-0.640
'4:11.153',-0.385,-0.645
'4:11.156',-0.375,-0.640
'4:11.158',-0.370,-0.630
'4:11.161',-0.355,-0.610
'4:11.164',-0.350,-0.605
'4:11.167',-0.340,-0.600
'4:11.169',-0.340,-0.590
'4:11.172',-0.345,-0.595
'4:11.175',-0.340,-0.590
'4:11.178',-0.340,-0.605
'4:11.181',-0.335,-0.615
'4:11.183',-0.315,-0.620
'4:11.186',-0.310,-0.625
'4:11.189',-0.310,-0.640
'4:11.192',-0.325,-0.635
'4:11.194',-0.330,-0.640
'4:11.197',-0.345,-0.635
'4:11.200',-0.340,-0.650
'4:11.203',-0.345,-0.655
'4:11.206',-0.355,-0.655
'4:11.208',-0.350,-0.665
'4:11.211',-0.360,-0.680
'4:11.214',-0.375,-0.670
'4:11.217',-0.375,-0.680
'4:11.219',-0.390,-0.675
'4:11.222',-0.395,-0.660
'4:11.225',-0.400,-0.650
'4:11.228',-0.400,-0.645
'4:11.231',-0.395,-0.640
'4:11.233',-0.410,-0.625
'4:11.236',-0.420,-0.625
'4:11.239',-0.420,-0.630
'4:11.242',-0.440,-0.625
'4:11.244',-0.460,-0.630
'4:11.247',-0.470,-0.640
'4:11.250',-0.480,-0.645
'4:11.253',-0.475,-0.625
'4:11.256',-0.480,-0.630
'4:11.258',-0.470,-0.615
'4:11.261',-0.465,-0.620
'4:11.264',-0.455,-0.620
'4:11.267',-0.450,-0.595
'4:11.269',-0.440,-0.615
'4:11.272',-0.440,-0.605
'4:11.275',-0.440,-0.625
'4:11.278',-0.440,-0.635
'4:11.281',-0.440,-0.630
'4:11.283',-0.445,-0.635
'4:11.286',-0.460,-0.630
'4:11.289',-0.470,-0.630
'4:11.292',-0.480,-0.625
'4:11.294',-0.505,-0.620
'4:11.297',-0.520,-0.610
'4:11.300',-0.505,-0.590
'4:11.303',-0.455,-0.585
'4:11.306',-0.375,-0.585
'4:11.308',-0.275,-0.610
'4:11.311',-0.125,-0.645
'4:11.314',0.055,-0.685
'4:11.317',0.260,-0.755
'4:11.319',0.500,-0.825
'4:11.322',0.685,-0.890
'4:11.325',0.790,-0.920
'4:11.328',0.770,-0.935
'4:11.331',0.620,-0.895
'4:11.333',0.365,-0.840
'4:11.336',0.070,-0.770
'4:11.339',-0.190,-0.675
'4:11.342',-0.385,-0.600
'4:11.344',-0.465,-0.515
'4:11.347',-0.475,-0.485
'4:11.350',-0.435,-0.490
'4:11.353',-0.395,-0.520
'4:11.356',-0.370,-0.570
'4:11.358',-0.350,-0.620
'4:11.361',-0.355,-0.650
'4:11.364',-0.350,-0.665
'4:11.367',-0.360,-0.665
'4:11.369',-0.365,-0.655
'4:11.372',-0.385,-0.650
'4:11.375',-0.395,-0.645
'4:11.378',-0.405,-0.640
'4:11.381',-0.425,-0.655
'4:11.383',-0.420,-0.645
'4:11.386',-0.430,-0.645
'4:11.389',-0.440,-0.650
'4:11.392',-0.435,-0.630
'4:11.394',-0.435,-0.620
'4:11.397',-0.425,-0.625
'4:11.400',-0.425,-0.620
'4:11.403',-0.420,-0.610
'4:11.406',-0.410,-0.620
'4:11.408',-0.420,-0.630
'4:11.411',-0.420,-0.625
'4:11.414',-0.425,-0.635
'4:11.417',-0.435,-0.640
'4:11.419',-0.435,-0.640
'4:11.422',-0.435,-0.635
'4:11.425',-0.420,-0.635
'4:11.428',-0.415,-0.625
'4:11.431',-0.410,-0.615
'4:11.433',-0.410,-0.615
'4:11.436',-0.400,-0.610
'4:11.439',-0.390,-0.620
'4:11.442',-0.405,-0.630
'4:11.444',-0.420,-0.630
'4:11.447',-0.430,-0.640
'4:11.450',-0.435,-0.645
'4:11.453',-0.425,-0.635
'4:11.456',-0.425,-0.640
'4:11.458',-0.410,-0.635
'4:11.461',-0.415,-0.640
'4:11.464',-0.405,-0.635
'4:11.467',-0.400,-0.625
'4:11.469',-0.400,-0.635
'4:11.472',-0.400,-0.630
'4:11.475',-0.400,-0.635
'4:11.478',-0.405,-0.645
'4:11.481',-0.400,-0.655
'4:11.483',-0.405,-0.660
'4:11.486',-0.410,-0.650
'4:11.489',-0.420,-0.655
'4:11.492',-0.405,-0.645
'4:11.494',-0.405,-0.640
'4:11.497',-0.400,-0.640
'4:11.500',-0.390,-0.635
'4:11.503',-0.390,-0.640
'4:11.506',-0.385,-0.640
'4:11.508',-0.385,-0.645
'4:11.511',-0.390,-0.660
'4:11.514',-0.395,-0.665
'4:11.517',-0.400,-0.675
'4:11.519',-0.415,-0.670
'4:11.522',-0.410,-0.670
'4:11.525',-0.400,-0.665
'4:11.528',-0.395,-0.660
'4:11.531',-0.385,-0.650
'4:11.533',-0.385,-0.640
'4:11.536',-0.380,-0.665
'4:11.539',-0.380,-0.655
'4:11.542',-0.385,-0.660
'4:11.544',-0.390,-0.670
'4:11.547',-0.395,-0.685
'4:11.550',-0.395,-0.680
'4:11.553',-0.390,-0.685
'4:11.556',-0.400,-0.690
'4:11.558',-0.390,-0.680
'4:11.561',-0.385,-0.670
'4:11.564',-0.380,-0.665
'4:11.567',-0.370,-0.660
'4:11.569',-0.365,-0.660
'4:11.572',-0.360,-0.675
'4:11.575',-0.365,-0.680
'4:11.578',-0.360,-0.695
'4:11.581',-0.365,-0.690
'4:11.583',-0.370,-0.705
'4:11.586',-0.365,-0.690
'4:11.589',-0.360,-0.700
'4:11.592',-0.350,-0.680
'4:11.594',-0.330,-0.690
'4:11.597',-0.325,-0.675
'4:11.600',-0.310,-0.680
'4:11.603',-0.305,-0.685
'4:11.606',-0.300,-0.685
'4:11.608',-0.300,-0.710
'4:11.611',-0.295,-0.705
'4:11.614',-0.300,-0.715
'4:11.617',-0.305,-0.710
'4:11.619',-0.315,-0.720
'4:11.622',-0.315,-0.710
'4:11.625',-0.300,-0.705
'4:11.628',-0.305,-0.700
'4:11.631',-0.320,-0.690
'4:11.633',-0.300,-0.680
'4:11.636',-0.295,-0.690
'4:11.639',-0.300,-0.680
'4:11.642',-0.305,-0.685
'4:11.644',-0.320,-0.695
'4:11.647',-0.335,-0.695
'4:11.650',-0.340,-0.700
'4:11.653',-0.350,-0.700
'4:11.656',-0.360,-0.675
'4:11.658',-0.360,-0.660
'4:11.661',-0.355,-0.665
'4:11.664',-0.360,-0.645
'4:11.667',-0.360,-0.645
'4:11.669',-0.360,-0.645
'4:11.672',-0.365,-0.655
'4:11.675',-0.365,-0.650
'4:11.678',-0.370,-0.650
'4:11.681',-0.385,-0.660
'4:11.683',-0.395,-0.660
'4:11.686',-0.395,-0.655
'4:11.689',-0.400,-0.645
'4:11.692',-0.395,-0.650
'4:11.694',-0.390,-0.645
'4:11.697',-0.390,-0.640
'4:11.700',-0.375,-0.625
'4:11.703',-0.385,-0.635
'4:11.706',-0.385,-0.625
'4:11.708',-0.390,-0.635
'4:11.711',-0.395,-0.640
'4:11.714',-0.400,-0.645
'4:11.717',-0.405,-0.655
'4:11.719',-0.415,-0.650
'4:11.722',-0.415,-0.640
'4:11.725',-0.415,-0.620
'4:11.728',-0.410,-0.605
'4:11.731',-0.405,-0.615
'4:11.733',-0.400,-0.605
'4:11.736',-0.405,-0.610
'4:11.739',-0.410,-0.620
'4:11.742',-0.410,-0.620
'4:11.744',-0.410,-0.625
'4:11.747',-0.425,-0.640
'4:11.750',-0.430,-0.640
'4:11.753',-0.435,-0.640
'4:11.756',-0.425,-0.640
'4:11.758',-0.425,-0.635
'4:11.761',-0.415,-0.620
'4:11.764',-0.415,-0.625
'4:11.767',-0.410,-0.630
'4:11.769',-0.410,-0.615
'4:11.772',-0.415,-0.620
'4:11.775',-0.415,-0.625
'4:11.778',-0.420,-0.625
'4:11.781',-0.425,-0.620
'4:11.783',-0.430,-0.645
'4:11.786',-0.435,-0.630
'4:11.789',-0.440,-0.625
'4:11.792',-0.435,-0.625
'4:11.794',-0.430,-0.625
'4:11.797',-0.440,-0.615
'4:11.800',-0.415,-0.610
'4:11.803',-0.415,-0.610
'4:11.806',-0.405,-0.615
'4:11.808',-0.410,-0.615
'4:11.811',-0.410,-0.625
'4:11.814',-0.405,-0.630
'4:11.817',-0.400,-0.640
'4:11.819',-0.385,-0.635
'4:11.822',-0.395,-0.630
'4:11.825',-0.380,-0.610
'4:11.828',-0.375,-0.610
'4:11.831',-0.375,-0.590
'4:11.833',-0.360,-0.590
'4:11.836',-0.360,-0.595
'4:11.839',-0.350,-0.595
'4:11.842',-0.345,-0.600
'4:11.844',-0.345,-0.595
'4:11.847',-0.335,-0.625
'4:11.850',-0.335,-0.630
'4:11.853',-0.340,-0.640
'4:11.856',-0.350,-0.655
'4:11.858',-0.360,-0.660
'4:11.861',-0.365,-0.655
'4:11.864',-0.370,-0.655
'4:11.867',-0.380,-0.660
'4:11.869',-0.375,-0.660
'4:11.872',-0.370,-0.660
'4:11.875',-0.385,-0.665
'4:11.878',-0.390,-0.665
'4:11.881',-0.395,-0.665
'4:11.883',-0.405,-0.675
'4:11.886',-0.410,-0.670
'4:11.889',-0.420,-0.665
'4:11.892',-0.420,-0.665
'4:11.894',-0.425,-0.645
'4:11.897',-0.430,-0.630
'4:11.900',-0.425,-0.615
'4:11.903',-0.425,-0.625
'4:11.906',-0.435,-0.615
'4:11.908',-0.445,-0.615
'4:11.911',-0.450,-0.620
'4:11.914',-0.460,-0.620
'4:11.917',-0.470,-0.630
'4:11.919',-0.475,-0.630
'4:11.922',-0.465,-0.620
'4:11.925',-0.465,-0.625
'4:11.928',-0.455,-0.610
'4:11.931',-0.450,-0.605
'4:11.933',-0.445,-0.600
'4:11.936',-0.435,-0.610
'4:11.939',-0.435,-0.605
'4:11.942',-0.430,-0.615
'4:11.944',-0.440,-0.625
'4:11.947',-0.445,-0.630
'4:11.950',-0.450,-0.630
'4:11.953',-0.455,-0.630
'4:11.956',-0.460,-0.625
'4:11.958',-0.480,-0.625
'4:11.961',-0.485,-0.615
'4:11.964',-0.490,-0.595
'4:11.967',-0.470,-0.575
'4:11.969',-0.415,-0.570
'4:11.972',-0.325,-0.580
'4:11.975',-0.225,-0.605
'4:11.978',-0.085,-0.650
'4:11.981',0.075,-0.700
'4:11.983',0.265,-0.775
'4:11.986',0.445,-0.855
'4:11.989',0.605,-0.915
'4:11.992',0.705,-0.960
'4:11.994',0.675,-0.965
'4:11.997',0.530,-0.935
'4:12.000',0.285,-0.880
'4:12.003',0.015,-0.805
'4:12.006',-0.225,-0.715
'4:12.008',-0.400,-0.630
'4:12.011',-0.455,-0.575
'4:12.014',-0.460,-0.535
'4:12.017',-0.405,-0.545
'4:12.019',-0.355,-0.570
'4:12.022',-0.335,-0.620
'4:12.025',-0.315,-0.665
'4:12.028',-0.325,-0.680
'4:12.031',-0.335,-0.700
'4:12.033',-0.350,-0.680
'4:12.036',-0.365,-0.665
'4:12.039',-0.375,-0.655
'4:12.042',-0.390,-0.650
'4:12.044',-0.400,-0.635
'4:12.047',-0.415,-0.640
'4:12.050',-0.410,-0.660
'4:12.053',-0.415,-0.660
'4:12.056',-0.425,-0.650
'4:12.058',-0.415,-0.635
'4:12.061',-0.405,-0.625
'4:12.064',-0.400,-0.605
'4:12.067',-0.395,-0.610
'4:12.069',-0.405,-0.615
'4:12.072',-0.400,-0.615
'4:12.075',-0.390,-0.620
'4:12.078',-0.405,-0.640
'4:12.081',-0.410,-0.645
'4:12.083',-0.430,-0.645
'4:12.086',-0.415,-0.650
'4:12.089',-0.415,-0.640
'4:12.092',-0.415,-0.620
'4:12.094',-0.405,-0.635
'4:12.097',-0.400,-0.615
'4:12.100',-0.390,-0.615
'4:12.103',-0.385,-0.620
'4:12.106',-0.390,-0.620
'4:12.108',-0.385,-0.625
'4:12.111',-0.395,-0.640
'4:12.114',-0.400,-0.640
'4:12.117',-0.400,-0.650
'4:12.119',-0.400,-0.660
'4:12.122',-0.400,-0.655
'4:12.125',-0.395,-0.645
'4:12.128',-0.385,-0.630
'4:12.131',-0.390,-0.635
'4:12.133',-0.385,-0.625
'4:12.136',-0.385,-0.635
'4:12.139',-0.380,-0.645
'4:12.142',-0.380,-0.640
'4:12.144',-0.385,-0.660
'4:12.147',-0.390,-0.650
'4:12.150',-0.390,-0.665
'4:12.153',-0.395,-0.660
'4:12.156',-0.390,-0.660
'4:12.158',-0.380,-0.645
'4:12.161',-0.375,-0.650
'4:12.164',-0.375,-0.650
'4:12.167',-0.365,-0.650
'4:12.169',-0.375,-0.655
'4:12.172',-0.365,-0.650
'4:12.175',-0.365,-0.655
'4:12.178',-0.375,-0.675
'4:12.181',-0.375,-0.675
'4:12.183',-0.375,-0.685
'4:12.186',-0.385,-0.685
'4:12.189',-0.375,-0.680
'4:12.192',-0.365,-0.660
'4:12.194',-0.360,-0.670
'4:12.197',-0.360,-0.670
'4:12.200',-0.345,-0.660
'4:12.203',-0.350,-0.650
'4:12.206',-0.340,-0.660
'4:12.208',-0.345,-0.670
'4:12.211',-0.350,-0.675
'4:12.214',-0.365,-0.700
'4:12.217',-0.370,-0.685
'4:12.219',-0.375,-0.690
'4:12.222',-0.365,-0.685
'4:12.225',-0.365,-0.680
'4:12.228',-0.360,-0.680
'4:12.231',-0.360,-0.685
'4:12.233',-0.355,-0.670
'4:12.236',-0.345,-0.665
'4:12.239',-0.345,-0.660
'4:12.242',-0.350,-0.680
'4:12.244',-0.350,-0.685
'4:12.247',-0.355,-0.705
'4:12.250',-0.360,-0.700
'4:12.253',-0.360,-0.700
'4:12.256',-0.360,-0.695
'4:12.258',-0.355,-0.685
'4:12.261',-0.340,-0.685
'4:12.264',-0.340,-0.680
'4:12.267',-0.315,-0.685
'4:12.269',-0.310,-0.685
'4:12.272',-0.305,-0.685
'4:12.275',-0.300,-0.695
'4:12.278',-0.305,-0.700
'4:12.281',-0.295,-0.715
'4:12.283',-0.300,-0.725
'4:12.286',-0.295,-0.725
'4:12.289',-0.295,-0.715
'4:12.292',-0.290,-0.715
'4:12.294',-0.290,-0.720
'4:12.297',-0.280,-0.700
'4:12.300',-0.280,-0.690
'4:12.303',-0.285,-0.710
'4:12.306',-0.285,-0.720
'4:12.308',-0.285,-0.715
'4:12.311',-0.300,-0.720
'4:12.314',-0.300,-0.730
'4:12.317',-0.310,-0.725
'4:12.319',-0.320,-0.715
'4:12.322',-0.325,-0.715
'4:12.325',-0.325,-0.695
'4:12.328',-0.330,-0.690
'4:12.331',-0.320,-0.670
'4:12.333',-0.325,-0.665
'4:12.336',-0.325,-0.670
'4:12.339',-0.335,-0.660
'4:12.342',-0.340,-0.665
'4:12.344',-0.350,-0.670
'4:12.347',-0.370,-0.675
'4:12.350',-0.370,-0.680
'4:12.353',-0.385,-0.660
'4:12.356',-0.385,-0.660
'4:12.358',-0.390,-0.655
'4:12.361',-0.385,-0.645
'4:12.364',-0.370,-0.635
'4:12.367',-0.365,-0.625
'4:12.369',-0.365,-0.625
'4:12.372',-0.375,-0.630
'4:12.375',-0.370,-0.635
'4:12.378',-0.385,-0.645
'4:12.381',-0.390,-0.650
'4:12.383',-0.400,-0.650
'4:12.386',-0.400,-0.645
'4:12.389',-0.410,-0.640
'4:12.392',-0.395,-0.635
'4:12.394',-0.390,-0.635
'4:12.397',-0.385,-0.630
'4:12.400',-0.395,-0.625
'4:12.403',-0.390,-0.620
'4:12.406',-0.385,-0.625
'4:12.408',-0.400,-0.625
'4:12.411',-0.410,-0.645
'4:12.414',-0.415,-0.650
'4:12.417',-0.425,-0.650
'4:12.419',-0.410,-0.645
'4:12.422',-0.415,-0.645
'4:12.425',-0.410,-0.630
'4:12.428',-0.400,-0.625
'4:12.431',-0.400,-0.620
'4:12.433',-0.395,-0.620
'4:12.436',-0.395,-0.610
'4:12.439',-0.395,-0.615
'4:12.442',-0.400,-0.630
'4:12.444',-0.400,-0.635
'4:12.447',-0.415,-0.640
'4:12.450',-0.415,-0.645
'4:12.453',-0.425,-0.645
'4:12.456',-0.425,-0.635
'4:12.458',-0.420,-0.630
'4:12.461',-0.420,-0.625
'4:12.464',-0.415,-0.615
'4:12.467',-0.410,-0.605
'4:12.469',-0.415,-0.610
'4:12.472',-0.400,-0.625
'4:12.475',-0.410,-0.630
'4:12.478',-0.415,-0.620
'4:12.481',-0.415,-0.635
'4:12.483',-0.420,-0.645
'4:12.486',-0.410,-0.645
'4:12.489',-0.400,-0.635
'4:12.492',-0.390,-0.630
'4:12.494',-0.380,-0.615
'4:12.497',-0.365,-0.620
'4:12.500',-0.360,-0.605
'4:12.503',-0.360,-0.595
'4:12.506',-0.350,-0.605
'4:12.508',-0.360,-0.595
'4:12.511',-0.360,-0.595
'4:12.514',-0.360,-0.615
'4:12.517',-0.365,-0.600
'4:12.519',-0.350,-0.615
'4:12.522',-0.340,-0.605
'4:12.525',-0.335,-0.600
'4:12.528',-0.315,-0.600
'4:12.531',-0.325,-0.620
'4:12.533',-0.315,-0.610
'4:12.536',-0.340,-0.630
'4:12.539',-0.345,-0.645
'4:12.542',-0.365,-0.650
'4:12.544',-0.375,-0.670
'4:12.547',-0.380,-0.675
'4:12.550',-0.385,-0.680
'4:12.553',-0.390,-0.670
'4:12.556',-0.395,-0.655
'4:12.558',-0.390,-0.655
'4:12.561',-0.390,-0.650
'4:12.564',-0.395,-0.640
'4:12.567',-0.385,-0.635
'4:12.569',-0.385,-0.635
'4:12.572',-0.405,-0.625
'4:12.575',-0.410,-0.620
'4:12.578',-0.430,-0.615
'4:12.581',-0.445,-0.625
'4:12.583',-0.455,-0.625
'4:12.586',-0.455,-0.625
'4:12.589',-0.460,-0.610
'4:12.592',-0.460,-0.600
'4:12.594',-0.450,-0.595
'4:12.597',-0.440,-0.600
'4:12.600',-0.430,-0.590
'4:12.603',-0.430,-0.585
'4:12.606',-0.430,-0.585
'4:12.608',-0.435,-0.595
'4:12.611',-0.440,-0.610
'4:12.614',-0.445,-0.615
'4:12.617',-0.450,-0.625
'4:12.619',-0.455,-0.635
'4:12.622',-0.450,-0.610
'4:12.625',-0.460,-0.615
'4:12.628',-0.450,-0.610
'4:12.631',-0.455,-0.600
'4:12.633',-0.470,-0.590
'4:12.636',-0.485,-0.585
'4:12.639',-0.490,-0.570
'4:12.642',-0.475,-0.570
'4:12.644',-0.440,-0.565
'4:12.647',-0.380,-0.575
'4:12.650',-0.275,-0.600
'4:12.653',-0.135,-0.630
'4:12.656',0.030,-0.680
'4:12.658',0.230,-0.740
'4:12.661',0.425,-0.805
'4:12.664',0.605,-0.865
'4:12.667',0.705,-0.905
'4:12.669',0.690,-0.930
'4:12.672',0.560,-0.915
'4:12.675',0.320,-0.865
'4:12.678',0.045,-0.795
'4:12.681',-0.200,-0.705
'4:12.683',-0.380,-0.615
'4:12.686',-0.470,-0.545
'4:12.689',-0.465,-0.495
'4:12.692',-0.425,-0.510
'4:12.694',-0.365,-0.535
'4:12.697',-0.325,-0.600
'4:12.700',-0.315,-0.640
'4:12.703',-0.325,-0.670
'4:12.706',-0.335,-0.670
'4:12.708',-0.365,-0.680
'4:12.711',-0.400,-0.655
'4:12.714',-0.415,-0.635
'4:12.717',-0.430,-0.635
'4:12.719',-0.435,-0.630
'4:12.722',-0.445,-0.630
'4:12.725',-0.440,-0.625
'4:12.728',-0.435,-0.620
'4:12.731',-0.440,-0.605
'4:12.733',-0.415,-0.600
'4:12.736',-0.425,-0.600
'4:12.739',-0.430,-0.605
'4:12.742',-0.420,-0.605
'4:12.744',-0.430,-0.615
'4:12.747',-0.430,-0.615
'4:12.750',-0.450,-0.625
'4:12.753',-0.455,-0.625
'4:12.756',-0.455,-0.625
'4:12.758',-0.450,-0.620
'4:12.761',-0.430,-0.605
'4:12.764',-0.430,-0.605
'4:12.767',-0.420,-0.605
'4:12.769',-0.415,-0.610
'4:12.772',-0.430,-0.605
'4:12.775',-0.420,-0.615
'4:12.778',-0.425,-0.625
'4:12.781',-0.435,-0.635
'4:12.783',-0.445,-0.635
'4:12.786',-0.445,-0.635
'4:12.789',-0.445,-0.635
'4:12.792',-0.430,-0.630
'4:12.794',-0.430,-0.615
'4:12.797',-0.420,-0.610
'4:12.800',-0.410,-0.615
'4:12.803',-0.415,-0.615
'4:12.806',-0.410,-0.615
'4:12.808',-0.420,-0.630
'4:12.811',-0.420,-0.640
'4:12.814',-0.420,-0.645
'4:12.817',-0.425,-0.650
'4:12.819',-0.420,-0.660
'4:12.822',-0.420,-0.645
'4:12.825',-0.420,-0.645
'4:12.828',-0.405,-0.635
'4:12.831',-0.405,-0.620
'4:12.833',-0.385,-0.620
'4:12.836',-0.380,-0.620
'4:12.839',-0.370,-0.630
'4:12.842',-0.375,-0.630
'4:12.844',-0.385,-0.640
'4:12.847',-0.395,-0.660
'4:12.850',-0.405,-0.660
'4:12.853',-0.405,-0.660
'4:12.856',-0.400,-0.660
'4:12.858',-0.405,-0.655
'4:12.861',-0.395,-0.650
'4:12.864',-0.395,-0.645
'4:12.867',-0.395,-0.640
'4:12.869',-0.390,-0.640
'4:12.872',-0.395,-0.650
'4:12.875',-0.390,-0.645
'4:12.878',-0.390,-0.655
'4:12.881',-0.390,-0.660
'4:12.883',-0.395,-0.675
'4:12.886',-0.395,-0.670
'4:12.889',-0.395,-0.680
'4:12.892',-0.385,-0.680
'4:12.894',-0.385,-0.670
'4:12.897',-0.380,-0.665
'4:12.900',-0.360,-0.655
'4:12.903',-0.360,-0.655
'4:12.906',-0.345,-0.670
'4:12.908',-0.345,-0.675
'4:12.911',-0.345,-0.675
'4:12.914',-0.340,-0.695
'4:12.917',-0.355,-0.700
'4:12.919',-0.350,-0.700
'4:12.922',-0.345,-0.700
'4:12.925',-0.345,-0.690
'4:12.928',-0.325,-0.700
'4:12.931',-0.310,-0.685
'4:12.933',-0.300,-0.680
'4:12.936',-0.280,-0.690
'4:12.939',-0.275,-0.695
'4:12.942',-0.270,-0.710
'4:12.944',-0.270,-0.710
'4:12.947',-0.275,-0.710
'4:12.950',-0.280,-0.725
'4:12.953',-0.290,-0.725
'4:12.956',-0.300,-0.725
'4:12.958',-0.295,-0.730
'4:12.961',-0.285,-0.720
'4:12.964',-0.285,-0.700
'4:12.967',-0.280,-0.690
'4:12.969',-0.280,-0.690
'4:12.972',-0.285,-0.695
'4:12.975',-0.295,-0.690
'4:12.978',-0.315,-0.695
'4:12.981',-0.320,-0.700
'4:12.983',-0.340,-0.695
'4:12.986',-0.350,-0.700
'4:12.989',-0.345,-0.690
'4:12.992',-0.345,-0.670
'4:12.994',-0.345,-0.665
'4:12.997',-0.340,-0.655
'4:13.000',-0.345,-0.655
'4:13.003',-0.335,-0.645
'4:13.006',-0.345,-0.650
'4:13.008',-0.350,-0.655
'4:13.011',-0.360,-0.645
'4:13.014',-0.365,-0.655
'4:13.017',-0.375,-0.655
'4:13.019',-0.390,-0.660
'4:13.022',-0.395,-0.640
'4:13.025',-0.385,-0.640
'4:13.028',-0.385,-0.635
'4:13.031',-0.375,-0.615
'4:13.033',-0.370,-0.610
'4:13.036',-0.370,-0.610
'4:13.039',-0.375,-0.625
'4:13.042',-0.370,-0.615
'4:13.044',-0.390,-0.625
'4:13.047',-0.390,-0.625
'4:13.050',-0.390,-0.635
'4:13.053',-0.400,-0.640
'4:13.056',-0.405,-0.620
'4:13.058',-0.405,-0.620
'4:13.061',-0.405,-0.615
'4:13.064',-0.410,-0.615
'4:13.067',-0.390,-0.600
'4:13.069',-0.380,-0.605
'4:13.072',-0.380,-0.600
'4:13.075',-0.390,-0.595
'4:13.078',-0.395,-0.605
'4:13.081',-0.400,-0.620
'4:13.083',-0.415,-0.615
'4:13.086',-0.420,-0.620
'4:13.089',-0.425,-0.615
'4:13.092',-0.420,-0.610
'4:13.094',-0.410,-0.610
'4:13.097',-0.395,-0.605
'4:13.100',-0.400,-0.590
'4:13.103',-0.385,-0.595
'4:13.106',-0.395,-0.590
'4:13.108',-0.400,-0.590
'4:13.111',-0.415,-0.605
'4:13.114',-0.420,-0.610
'4:13.117',-0.430,-0.615
'4:13.119',-0.420,-0.610
'4:13.122',-0.425,-0.605
'4:13.125',-0.405,-0.600
'4:13.128',-0.410,-0.600
'4:13.131',-0.400,-0.585
'4:13.133',-0.405,-0.580
'4:13.136',-0.400,-0.575
'4:13.139',-0.395,-0.590
'4:13.142',-0.385,-0.595
'4:13.144',-0.390,-0.605
'4:13.147',-0.390,-0.610
'4:13.150',-0.385,-0.600
'4:13.153',-0.395,-0.610
'4:13.156',-0.385,-0.595
'4:13.158',-0.385,-0.585
'4:13.161',-0.370,-0.575
'4:13.164',-0.370,-0.570
'4:13.167',-0.365,-0.555
'4:13.169',-0.355,-0.550
'4:13.172',-0.340,-0.555
'4:13.175',-0.330,-0.565
'4:13.178',-0.330,-0.580
'4:13.181',-0.330,-0.590
'4:13.183',-0.335,-0.605
'4:13.186',-0.345,-0.615
'4:13.189',-0.360,-0.635
'4:13.192',-0.370,-0.630
'4:13.194',-0.370,-0.625
'4:13.197',-0.360,-0.625
'4:13.200',-0.355,-0.630
'4:13.203',-0.360,-0.630
'4:13.206',-0.365,-0.625
'4:13.208',-0.370,-0.630
'4:13.211',-0.380,-0.635
'4:13.214',-0.390,-0.635
'4:13.217',-0.400,-0.635
'4:13.219',-0.405,-0.635
'4:13.222',-0.420,-0.635
'4:13.225',-0.420,-0.620
'4:13.228',-0.425,-0.620
'4:13.231',-0.425,-0.595
'4:13.233',-0.420,-0.590
'4:13.236',-0.425,-0.570
'4:13.239',-0.430,-0.570
'4:13.242',-0.440,-0.570
'4:13.244',-0.445,-0.575
'4:13.247',-0.450,-0.600
'4:13.250',-0.470,-0.585
'4:13.253',-0.460,-0.590
'4:13.256',-0.465,-0.585
'4:13.258',-0.465,-0.580
'4:13.261',-0.450,-0.575
'4:13.264',-0.450,-0.570
'4:13.267',-0.445,-0.570
'4:13.269',-0.440,-0.570
'4:13.272',-0.450,-0.570
'4:13.275',-0.445,-0.575
'4:13.278',-0.455,-0.575
'4:13.281',-0.455,-0.590
'4:13.283',-0.465,-0.585
'4:13.286',-0.475,-0.590
'4:13.289',-0.505,-0.585
'4:13.292',-0.525,-0.580
'4:13.294',-0.530,-0.570
'4:13.297',-0.510,-0.555
'4:13.300',-0.465,-0.535
'4:13.303',-0.365,-0.540
'4:13.306',-0.235,-0.555
'4:13.308',-0.075,-0.585
'4:13.311',0.120,-0.650
'4:13.314',0.320,-0.725
'4:13.317',0.515,-0.800
'4:13.319',0.685,-0.880
'4:13.322',0.760,-0.915
'4:13.325',0.710,-0.925
'4:13.328',0.540,-0.890
'4:13.331',0.290,-0.810
'4:13.333',0.025,-0.705
'4:13.336',-0.210,-0.600
'4:13.339',-0.370,-0.500
'4:13.342',-0.430,-0.435
'4:13.344',-0.425,-0.410
'4:13.347',-0.385,-0.445
'4:13.350',-0.365,-0.490
