'Elapsed time','MLII','V1'
'hh:mm:ss.mmm','mV','mV'
'14:00.000',-0.265,0.035
'14:00.003',-0.250,0.030
'14:00.006',-0.250,0.020
'14:00.008',-0.260,0.010
'14:00.011',-0.250,0.035
'14:00.014',-0.270,0.040
'14:00.017',-0.260,0.035
'14:00.019',-0.275,0.020
'14:00.022',-0.250,0.010
'14:00.025',-0.200,0.000
'14:00.028',-0.125,0.005
'14:00.031',-0.005,0.020
'14:00.033',0.140,0.000
'14:00.036',0.350,-0.035
'14:00.039',0.550,-0.045
'14:00.042',0.815,-0.010
'14:00.044',1.065,0.065
'14:00.047',1.290,0.175
'14:00.050',1.430,0.265
'14:00.053',1.460,0.370
'14:00.056',1.340,0.475
'14:00.058',1.135,0.525
'14:00.061',0.850,0.520
'14:00.064',0.535,0.465
'14:00.067',0.245,0.360
'14:00.069',0.025,0.195
'14:00.072',-0.135,0.040
'14:00.075',-0.220,-0.055
'14:00.078',-0.255,-0.105
'14:00.081',-0.260,-0.085
'14:00.083',-0.235,-0.060
'14:00.086',-0.215,-0.025
'14:00.089',-0.200,0.000
'14:00.092',-0.225,0.020
'14:00.094',-0.260,0.020
'14:00.097',-0.290,0.010
'14:00.100',-0.315,0.000
'14:00.103',-0.330,0.000
'14:00.106',-0.340,-0.025
'14:00.108',-0.340,-0.010
'14:00.111',-0.340,0.005
'14:00.114',-0.340,0.030
'14:00.117',-0.330,0.020
'14:00.119',-0.330,0.015
'14:00.122',-0.330,-0.015
'14:00.125',-0.345,-0.020
'14:00.128',-0.355,-0.020
'14:00.131',-0.380,-0.010
'14:00.133',-0.375,-0.020
'14:00.136',-0.365,-0.030
'14:00.139',-0.350,-0.035
'14:00.142',-0.340,-0.035
'14:00.144',-0.330,-0.005
'14:00.147',-0.335,0.030
'14:00.150',-0.350,0.040
'14:00.153',-0.355,0.025
'14:00.156',-0.345,0.000
'14:00.158',-0.355,-0.045
'14:00.161',-0.370,-0.065
'14:00.164',-0.375,-0.065
'14:00.167',-0.380,-0.060
'14:00.169',-0.360,-0.040
'14:00.172',-0.360,-0.045
'14:00.175',-0.340,-0.030
'14:00.178',-0.330,-0.020
'14:00.181',-0.340,0.005
'14:00.183',-0.345,0.020
'14:00.186',-0.345,0.025
'14:00.189',-0.345,0.000
'14:00.192',-0.335,-0.035
'14:00.194',-0.355,-0.070
'14:00.197',-0.360,-0.080
'14:00.200',-0.350,-0.075
'14:00.203',-0.340,-0.065
'14:00.206',-0.330,-0.050
'14:00.208',-0.315,-0.055
'14:00.211',-0.310,-0.050
'14:00.214',-0.320,-0.040
'14:00.217',-0.330,-0.025
'14:00.219',-0.340,-0.025
'14:00.222',-0.330,-0.055
'14:00.225',-0.325,-0.090
'14:00.228',-0.310,-0.125
'14:00.231',-0.310,-0.125
'14:00.233',-0.300,-0.110
'14:00.236',-0.320,-0.085
'14:00.239',-0.295,-0.060
'14:00.242',-0.290,-0.080
'14:00.244',-0.300,-0.075
'14:00.247',-0.295,-0.085
'14:00.250',-0.290,-0.095
'14:00.253',-0.295,-0.070
'14:00.256',-0.290,-0.080
'14:00.258',-0.285,-0.110
'14:00.261',-0.290,-0.125
'14:00.264',-0.300,-0.150
'14:00.267',-0.295,-0.155
'14:00.269',-0.295,-0.140
'14:00.272',-0.280,-0.150
'14:00.275',-0.255,-0.130
'14:00.278',-0.240,-0.135
'14:00.281',-0.235,-0.130
'14:00.283',-0.230,-0.130
'14:00.286',-0.250,-0.100
'14:00.289',-0.270,-0.090
'14:00.292',-0.270,-0.105
'14:00.294',-0.275,-0.135
'14:00.297',-0.280,-0.155
'14:00.300',-0.280,-0.160
'14:00.303',-0.285,-0.150
'14:00.306',-0.275,-0.130
'14:00.308',-0.275,-0.115
'14:00.311',-0.255,-0.110
'14:00.314',-0.240,-0.130
'14:00.317',-0.245,-0.125
'14:00.319',-0.240,-0.115
'14:00.322',-0.245,-0.085
'14:00.325',-0.255,-0.090
'14:00.328',-0.260,-0.085
'14:00.331',-0.245,-0.080
'14:00.333',-0.250,-0.090
'14:00.336',-0.240,-0.060
'14:00.339',-0.230,-0.030
'14:00.342',-0.230,-0.010
'14:00.344',-0.215,0.005
'14:00.347',-0.210,0.005
'14:00.350',-0.200,-0.010
'14:00.353',-0.200,-0.005
'14:00.356',-0.225,0.005
'14:00.358',-0.225,0.015
'14:00.361',-0.225,0.015
'14:00.364',-0.225,0.000
'14:00.367',-0.230,-0.005
'14:00.369',-0.235,0.015
'14:00.372',-0.250,0.035
'14:00.375',-0.255,0.065
'14:00.378',-0.255,0.085
'14:00.381',-0.225,0.070
'14:00.383',-0.215,0.035
'14:00.386',-0.225,0.020
'14:00.389',-0.225,0.005
'14:00.392',-0.240,0.000
'14:00.394',-0.250,0.005
'14:00.397',-0.250,-0.005
'14:00.400',-0.255,-0.010
'14:00.403',-0.260,-0.025
'14:00.406',-0.260,-0.005
'14:00.408',-0.250,0.040
'14:00.411',-0.245,0.050
'14:00.414',-0.245,0.065
'14:00.417',-0.235,0.055
'14:00.419',-0.245,0.025
'14:00.422',-0.235,0.005
'14:00.425',-0.255,-0.010
'14:00.428',-0.260,0.005
'14:00.431',-0.265,0.005
'14:00.433',-0.255,0.000
'14:00.436',-0.265,0.015
'14:00.439',-0.260,-0.005
'14:00.442',-0.245,0.005
'14:00.444',-0.240,0.020
'14:00.447',-0.235,0.035
'14:00.450',-0.230,0.020
'14:00.453',-0.215,0.030
'14:00.456',-0.225,-0.005
'14:00.458',-0.225,-0.005
'14:00.461',-0.240,0.000
'14:00.464',-0.240,0.010
'14:00.467',-0.245,0.015
'14:00.469',-0.245,0.010
'14:00.472',-0.235,0.010
'14:00.475',-0.240,0.010
'14:00.478',-0.230,0.025
'14:00.481',-0.220,0.025
'14:00.483',-0.220,0.025
'14:00.486',-0.220,0.005
'14:00.489',-0.215,-0.010
'14:00.492',-0.230,-0.010
'14:00.494',-0.245,0.000
'14:00.497',-0.250,0.020
'14:00.500',-0.240,0.020
'14:00.503',-0.235,0.000
'14:00.506',-0.220,-0.010
'14:00.508',-0.225,0.000
'14:00.511',-0.225,0.010
'14:00.514',-0.215,0.030
'14:00.517',-0.215,0.010
'14:00.519',-0.210,0.000
'14:00.522',-0.200,-0.030
'14:00.525',-0.225,-0.030
'14:00.528',-0.230,-0.020
'14:00.531',-0.230,-0.020
'14:00.533',-0.230,0.005
'14:00.536',-0.250,0.015
'14:00.539',-0.240,0.015
'14:00.542',-0.235,0.010
'14:00.544',-0.225,0.030
'14:00.547',-0.215,0.045
'14:00.550',-0.205,0.045
'14:00.553',-0.200,0.040
'14:00.556',-0.190,0.025
'14:00.558',-0.185,0.015
'14:00.561',-0.190,0.025
'14:00.564',-0.190,0.040
'14:00.567',-0.185,0.050
'14:00.569',-0.170,0.055
'14:00.572',-0.150,0.045
'14:00.575',-0.135,0.035
'14:00.578',-0.130,0.055
'14:00.581',-0.105,0.075
'14:00.583',-0.105,0.090
'14:00.586',-0.095,0.090
'14:00.589',-0.075,0.060
'14:00.592',-0.075,0.010
'14:00.594',-0.080,0.000
'14:00.597',-0.090,0.000
'14:00.600',-0.100,0.000
'14:00.603',-0.100,0.000
'14:00.606',-0.095,0.000
'14:00.608',-0.085,0.005
'14:00.611',-0.085,0.010
'14:00.614',-0.080,0.035
'14:00.617',-0.095,0.050
'14:00.619',-0.105,0.030
'14:00.622',-0.115,0.010
'14:00.625',-0.135,-0.010
'14:00.628',-0.160,-0.035
'14:00.631',-0.190,-0.025
'14:00.633',-0.215,0.020
'14:00.636',-0.235,0.025
'14:00.639',-0.230,0.040
'14:00.642',-0.250,0.015
'14:00.644',-0.260,0.000
'14:00.647',-0.265,0.025
'14:00.650',-0.275,0.025
'14:00.653',-0.280,0.030
'14:00.656',-0.275,0.010
'14:00.658',-0.295,-0.005
'14:00.661',-0.310,-0.030
'14:00.664',-0.325,-0.010
'14:00.667',-0.335,0.005
'14:00.669',-0.330,0.000
'14:00.672',-0.320,-0.005
'14:00.675',-0.320,-0.005
'14:00.678',-0.320,0.005
'14:00.681',-0.315,0.035
'14:00.683',-0.325,0.050
'14:00.686',-0.320,0.040
'14:00.689',-0.325,0.005
'14:00.692',-0.340,-0.030
'14:00.694',-0.345,-0.065
'14:00.697',-0.360,-0.060
'14:00.700',-0.360,-0.035
'14:00.703',-0.315,-0.025
'14:00.706',-0.240,-0.010
'14:00.708',-0.120,-0.020
'14:00.711',0.025,-0.005
'14:00.714',0.225,-0.005
'14:00.717',0.450,0.000
'14:00.719',0.710,0.025
'14:00.722',0.980,0.065
'14:00.725',1.220,0.140
'14:00.728',1.355,0.250
'14:00.731',1.350,0.370
'14:00.733',1.210,0.470
'14:00.736',0.965,0.500
'14:00.739',0.680,0.485
'14:00.742',0.375,0.385
'14:00.744',0.100,0.270
'14:00.747',-0.110,0.130
'14:00.750',-0.265,0.015
'14:00.753',-0.345,-0.060
'14:00.756',-0.370,-0.130
'14:00.758',-0.335,-0.115
'14:00.761',-0.320,-0.075
'14:00.764',-0.320,-0.025
'14:00.767',-0.325,-0.005
'14:00.769',-0.345,0.000
'14:00.772',-0.340,-0.005
'14:00.775',-0.360,-0.015
'14:00.778',-0.380,-0.005
'14:00.781',-0.385,0.000
'14:00.783',-0.385,0.000
'14:00.786',-0.385,0.005
'14:00.789',-0.385,-0.015
'14:00.792',-0.380,-0.020
'14:00.794',-0.385,-0.020
'14:00.797',-0.395,-0.030
'14:00.800',-0.400,-0.035
'14:00.803',-0.395,-0.055
'14:00.806',-0.395,-0.055
'14:00.808',-0.395,-0.035
'14:00.811',-0.395,-0.010
'14:00.814',-0.400,0.000
'14:00.817',-0.410,-0.005
'14:00.819',-0.395,-0.010
'14:00.822',-0.395,-0.040
'14:00.825',-0.400,-0.050
'14:00.828',-0.400,-0.060
'14:00.831',-0.400,-0.055
'14:00.833',-0.390,-0.035
'14:00.836',-0.390,-0.025
'14:00.839',-0.395,-0.015
'14:00.842',-0.390,-0.020
'14:00.844',-0.400,0.000
'14:00.847',-0.390,0.015
'14:00.850',-0.395,0.005
'14:00.853',-0.385,-0.005
'14:00.856',-0.370,-0.030
'14:00.858',-0.370,-0.060
'14:00.861',-0.400,-0.075
'14:00.864',-0.395,-0.085
'14:00.867',-0.390,-0.080
'14:00.869',-0.385,-0.085
'14:00.872',-0.370,-0.075
'14:00.875',-0.370,-0.065
'14:00.878',-0.370,-0.030
'14:00.881',-0.345,-0.015
'14:00.883',-0.345,-0.035
'14:00.886',-0.345,-0.055
'14:00.889',-0.340,-0.090
'14:00.892',-0.340,-0.110
'14:00.894',-0.340,-0.100
'14:00.897',-0.335,-0.100
'14:00.900',-0.335,-0.095
'14:00.903',-0.330,-0.115
'14:00.906',-0.330,-0.115
'14:00.908',-0.325,-0.110
'14:00.911',-0.315,-0.080
'14:00.914',-0.295,-0.090
'14:00.917',-0.290,-0.105
'14:00.919',-0.285,-0.130
'14:00.922',-0.290,-0.155
'14:00.925',-0.295,-0.165
'14:00.928',-0.315,-0.155
'14:00.931',-0.310,-0.150
'14:00.933',-0.325,-0.145
'14:00.936',-0.305,-0.155
'14:00.939',-0.300,-0.165
'14:00.942',-0.280,-0.150
'14:00.944',-0.285,-0.135
'14:00.947',-0.265,-0.135
'14:00.950',-0.275,-0.130
'14:00.953',-0.280,-0.145
'14:00.956',-0.280,-0.170
'14:00.958',-0.285,-0.170
'14:00.961',-0.290,-0.165
'14:00.964',-0.300,-0.165
'14:00.967',-0.290,-0.160
'14:00.969',-0.295,-0.175
'14:00.972',-0.290,-0.180
'14:00.975',-0.295,-0.155
'14:00.978',-0.280,-0.130
'14:00.981',-0.270,-0.105
'14:00.983',-0.265,-0.085
'14:00.986',-0.260,-0.100
'14:00.989',-0.260,-0.100
'14:00.992',-0.260,-0.100
'14:00.994',-0.265,-0.090
'14:00.997',-0.255,-0.080
'14:01.000',-0.240,-0.060
'14:01.003',-0.235,-0.055
'14:01.006',-0.225,-0.045
'14:01.008',-0.225,-0.020
'14:01.011',-0.235,0.010
'14:01.014',-0.215,0.040
'14:01.017',-0.220,0.020
'14:01.019',-0.220,0.015
'14:01.022',-0.230,0.000
'14:01.025',-0.230,0.000
'14:01.028',-0.245,0.010
'14:01.031',-0.255,0.015
'14:01.033',-0.255,0.020
'14:01.036',-0.240,-0.010
'14:01.039',-0.240,-0.010
'14:01.042',-0.235,0.005
'14:01.044',-0.245,0.035
'14:01.047',-0.235,0.050
'14:01.050',-0.225,0.045
'14:01.053',-0.230,0.030
'14:01.056',-0.225,-0.005
'14:01.058',-0.235,-0.005
'14:01.061',-0.240,0.015
'14:01.064',-0.265,0.025
'14:01.067',-0.280,0.035
'14:01.069',-0.275,0.020
'14:01.072',-0.275,0.005
'14:01.075',-0.270,0.010
'14:01.078',-0.265,0.020
'14:01.081',-0.255,0.040
'14:01.083',-0.245,0.045
'14:01.086',-0.235,0.035
'14:01.089',-0.240,0.025
'14:01.092',-0.245,0.005
'14:01.094',-0.235,0.010
'14:01.097',-0.250,0.010
'14:01.100',-0.265,0.015
'14:01.103',-0.255,0.005
'14:01.106',-0.255,-0.010
'14:01.108',-0.245,-0.020
'14:01.111',-0.240,0.010
'14:01.114',-0.235,0.020
'14:01.117',-0.230,0.030
'14:01.119',-0.240,0.045
'14:01.122',-0.245,0.020
'14:01.125',-0.260,0.005
'14:01.128',-0.250,0.020
'14:01.131',-0.260,0.025
'14:01.133',-0.255,0.035
'14:01.136',-0.270,0.030
'14:01.139',-0.245,0.005
'14:01.142',-0.230,-0.020
'14:01.144',-0.230,-0.010
'14:01.147',-0.225,-0.005
'14:01.150',-0.235,0.020
'14:01.153',-0.225,0.020
'14:01.156',-0.240,0.015
'14:01.158',-0.245,0.000
'14:01.161',-0.250,0.010
'14:01.164',-0.255,0.025
'14:01.167',-0.265,0.045
'14:01.169',-0.275,0.045
'14:01.172',-0.260,0.050
'14:01.175',-0.250,0.040
'14:01.178',-0.260,0.040
'14:01.181',-0.250,0.055
'14:01.183',-0.245,0.060
'14:01.186',-0.240,0.060
'14:01.189',-0.235,0.055
'14:01.192',-0.235,0.030
'14:01.194',-0.250,0.010
'14:01.197',-0.265,0.005
'14:01.200',-0.250,0.010
'14:01.203',-0.255,0.030
'14:01.206',-0.260,0.050
'14:01.208',-0.235,0.030
'14:01.211',-0.225,0.040
'14:01.214',-0.220,0.045
'14:01.217',-0.215,0.060
'14:01.219',-0.205,0.075
'14:01.222',-0.195,0.070
'14:01.225',-0.195,0.065
'14:01.228',-0.185,0.045
'14:01.231',-0.185,0.045
'14:01.233',-0.175,0.050
'14:01.236',-0.185,0.060
'14:01.239',-0.195,0.090
'14:01.242',-0.150,0.090
'14:01.244',-0.125,0.080
'14:01.247',-0.100,0.085
'14:01.250',-0.090,0.080
'14:01.253',-0.080,0.115
'14:01.256',-0.090,0.120
'14:01.258',-0.105,0.105
'14:01.261',-0.110,0.075
'14:01.264',-0.115,0.015
'14:01.267',-0.115,0.005
'14:01.269',-0.110,0.005
'14:01.272',-0.115,0.025
'14:01.275',-0.110,0.045
'14:01.278',-0.115,0.030
'14:01.281',-0.115,0.030
'14:01.283',-0.130,0.025
'14:01.286',-0.165,0.035
'14:01.289',-0.175,0.045
'14:01.292',-0.210,0.045
'14:01.294',-0.230,0.050
'14:01.297',-0.225,0.025
'14:01.300',-0.245,0.025
'14:01.303',-0.255,0.035
'14:01.306',-0.260,0.040
'14:01.308',-0.275,0.045
'14:01.311',-0.275,0.030
'14:01.314',-0.275,0.015
'14:01.317',-0.285,-0.005
'14:01.319',-0.295,0.010
'14:01.322',-0.300,0.020
'14:01.325',-0.315,0.010
'14:01.328',-0.330,0.005
'14:01.331',-0.320,-0.005
'14:01.333',-0.320,-0.020
'14:01.336',-0.315,-0.020
'14:01.339',-0.315,0.010
'14:01.342',-0.320,0.040
'14:01.344',-0.320,0.035
'14:01.347',-0.315,0.035
'14:01.350',-0.315,0.020
'14:01.353',-0.320,0.010
'14:01.356',-0.325,0.005
'14:01.358',-0.345,-0.005
'14:01.361',-0.360,-0.035
'14:01.364',-0.360,-0.055
'14:01.367',-0.345,-0.060
'14:01.369',-0.300,-0.050
'14:01.372',-0.235,-0.015
'14:01.375',-0.115,0.015
'14:01.378',0.005,0.010
'14:01.381',0.185,-0.005
'14:01.383',0.405,-0.030
'14:01.386',0.640,0.000
'14:01.389',0.875,0.065
'14:01.392',1.080,0.185
'14:01.394',1.225,0.315
'14:01.397',1.280,0.430
'14:01.400',1.200,0.520
'14:01.403',1.005,0.595
'14:01.406',0.755,0.620
'14:01.408',0.485,0.560
'14:01.411',0.205,0.470
'14:01.414',-0.025,0.305
'14:01.417',-0.200,0.130
'14:01.419',-0.310,-0.010
'14:01.422',-0.375,-0.095
'14:01.425',-0.385,-0.105
'14:01.428',-0.350,-0.080
'14:01.431',-0.320,-0.055
'14:01.433',-0.300,-0.025
'14:01.436',-0.295,-0.020
'14:01.439',-0.320,0.000
'14:01.442',-0.355,0.020
'14:01.444',-0.360,0.025
'14:01.447',-0.370,0.015
'14:01.450',-0.365,0.000
'14:01.453',-0.375,0.005
'14:01.456',-0.365,0.005
'14:01.458',-0.375,0.015
'14:01.461',-0.390,0.010
'14:01.464',-0.390,-0.010
'14:01.467',-0.400,-0.030
'14:01.469',-0.405,-0.020
'14:01.472',-0.395,-0.015
'14:01.475',-0.380,0.000
'14:01.478',-0.375,0.025
'14:01.481',-0.375,0.020
'14:01.483',-0.370,0.005
'14:01.486',-0.365,-0.015
'14:01.489',-0.370,-0.020
'14:01.492',-0.375,-0.025
'14:01.494',-0.380,-0.010
'14:01.497',-0.375,-0.005
'14:01.500',-0.380,-0.030
'14:01.503',-0.370,-0.035
'14:01.506',-0.370,-0.035
'14:01.508',-0.370,-0.020
'14:01.511',-0.375,-0.015
'14:01.514',-0.370,-0.005
'14:01.517',-0.355,-0.015
'14:01.519',-0.350,-0.020
'14:01.522',-0.360,-0.025
'14:01.525',-0.360,-0.035
'14:01.528',-0.365,-0.020
'14:01.531',-0.380,-0.030
'14:01.533',-0.380,-0.045
'14:01.536',-0.360,-0.050
'14:01.539',-0.360,-0.050
'14:01.542',-0.345,-0.015
'14:01.544',-0.340,0.000
'14:01.547',-0.325,-0.020
'14:01.550',-0.320,-0.045
'14:01.553',-0.315,-0.055
'14:01.556',-0.315,-0.060
'14:01.558',-0.320,-0.060
'14:01.561',-0.315,-0.065
'14:01.564',-0.335,-0.080
'14:01.567',-0.335,-0.080
'14:01.569',-0.325,-0.095
'14:01.572',-0.330,-0.080
'14:01.575',-0.320,-0.075
'14:01.578',-0.315,-0.065
'14:01.581',-0.305,-0.075
'14:01.583',-0.290,-0.105
'14:01.586',-0.285,-0.125
'14:01.589',-0.275,-0.120
'14:01.592',-0.295,-0.105
'14:01.594',-0.300,-0.110
'14:01.597',-0.290,-0.105
'14:01.600',-0.310,-0.115
'14:01.603',-0.290,-0.135
'14:01.606',-0.290,-0.120
'14:01.608',-0.280,-0.115
'14:01.611',-0.270,-0.110
'14:01.614',-0.260,-0.105
'14:01.617',-0.245,-0.135
'14:01.619',-0.240,-0.150
'14:01.622',-0.230,-0.150
'14:01.625',-0.250,-0.140
'14:01.628',-0.250,-0.125
'14:01.631',-0.265,-0.130
'14:01.633',-0.280,-0.145
'14:01.636',-0.280,-0.150
'14:01.639',-0.295,-0.150
'14:01.642',-0.280,-0.140
'14:01.644',-0.260,-0.125
'14:01.647',-0.245,-0.110
'14:01.650',-0.225,-0.120
'14:01.653',-0.230,-0.125
'14:01.656',-0.235,-0.100
'14:01.658',-0.230,-0.090
'14:01.661',-0.235,-0.080
'14:01.664',-0.225,-0.075
'14:01.667',-0.215,-0.085
'14:01.669',-0.205,-0.065
'14:01.672',-0.205,-0.040
'14:01.675',-0.190,-0.005
'14:01.678',-0.190,0.015
'14:01.681',-0.175,0.015
'14:01.683',-0.170,0.015
'14:01.686',-0.195,0.030
'14:01.689',-0.200,0.030
'14:01.692',-0.205,0.055
'14:01.694',-0.205,0.065
'14:01.697',-0.200,0.060
'14:01.700',-0.200,0.055
'14:01.703',-0.195,0.070
'14:01.706',-0.200,0.095
'14:01.708',-0.205,0.100
'14:01.711',-0.190,0.080
'14:01.714',-0.185,0.055
'14:01.717',-0.190,0.040
'14:01.719',-0.200,0.040
'14:01.722',-0.205,0.055
'14:01.725',-0.205,0.040
'14:01.728',-0.195,0.025
'14:01.731',-0.210,0.025
'14:01.733',-0.215,0.035
'14:01.736',-0.220,0.070
'14:01.739',-0.210,0.080
'14:01.742',-0.200,0.065
'14:01.744',-0.200,0.050
'14:01.747',-0.185,0.055
'14:01.750',-0.180,0.055
'14:01.753',-0.180,0.070
'14:01.756',-0.175,0.070
'14:01.758',-0.185,0.055
'14:01.761',-0.185,0.040
'14:01.764',-0.195,0.045
'14:01.767',-0.215,0.055
'14:01.769',-0.220,0.060
'14:01.772',-0.215,0.060
'14:01.775',-0.205,0.035
'14:01.778',-0.190,0.040
'14:01.781',-0.185,0.035
'14:01.783',-0.180,0.045
'14:01.786',-0.185,0.055
'14:01.789',-0.190,0.050
'14:01.792',-0.190,0.040
'14:01.794',-0.185,0.030
'14:01.797',-0.195,0.045
'14:01.800',-0.200,0.055
'14:01.803',-0.190,0.055
'14:01.806',-0.185,0.055
'14:01.808',-0.190,0.050
'14:01.811',-0.185,0.055
'14:01.814',-0.175,0.065
'14:01.817',-0.170,0.080
'14:01.819',-0.170,0.080
'14:01.822',-0.160,0.055
'14:01.825',-0.170,0.050
'14:01.828',-0.160,0.040
'14:01.831',-0.175,0.050
'14:01.833',-0.185,0.055
'14:01.836',-0.180,0.035
'14:01.839',-0.175,0.030
'14:01.842',-0.165,0.035
'14:01.844',-0.170,0.050
'14:01.847',-0.160,0.055
'14:01.850',-0.155,0.060
'14:01.853',-0.150,0.065
'14:01.856',-0.155,0.050
'14:01.858',-0.170,0.045
'14:01.861',-0.170,0.050
'14:01.864',-0.180,0.065
'14:01.867',-0.175,0.085
'14:01.869',-0.155,0.080
'14:01.872',-0.135,0.090
'14:01.875',-0.115,0.100
'14:01.878',-0.110,0.110
'14:01.881',-0.105,0.130
'14:01.883',-0.100,0.130
'14:01.886',-0.085,0.115
'14:01.889',-0.065,0.095
'14:01.892',-0.065,0.090
'14:01.894',-0.060,0.090
'14:01.897',-0.050,0.090
'14:01.900',-0.035,0.100
'14:01.903',-0.025,0.085
'14:01.906',-0.005,0.070
'14:01.908',0.005,0.060
'14:01.911',0.000,0.070
'14:01.914',0.015,0.075
'14:01.917',0.020,0.080
'14:01.919',0.015,0.075
'14:01.922',0.015,0.075
'14:01.925',-0.020,0.065
'14:01.928',-0.045,0.045
'14:01.931',-0.070,0.050
'14:01.933',-0.090,0.060
'14:01.936',-0.095,0.060
'14:01.939',-0.110,0.050
'14:01.942',-0.105,0.030
'14:01.944',-0.125,0.050
'14:01.947',-0.130,0.060
'14:01.950',-0.145,0.065
'14:01.953',-0.175,0.065
'14:01.956',-0.175,0.040
'14:01.958',-0.200,0.025
'14:01.961',-0.215,0.025
'14:01.964',-0.230,0.035
'14:01.967',-0.235,0.045
'14:01.969',-0.230,0.050
'14:01.972',-0.220,0.045
'14:01.975',-0.210,0.035
'14:01.978',-0.200,0.055
'14:01.981',-0.190,0.090
'14:01.983',-0.205,0.105
'14:01.986',-0.200,0.105
'14:01.989',-0.215,0.085
'14:01.992',-0.215,0.045
'14:01.994',-0.235,0.025
'14:01.997',-0.250,0.045
'14:02.000',-0.270,0.035
'14:02.003',-0.270,0.020
'14:02.006',-0.260,0.005
'14:02.008',-0.235,0.000
'14:02.011',-0.230,0.025
'14:02.014',-0.190,0.040
'14:02.017',-0.115,0.070
'14:02.019',-0.015,0.060
'14:02.022',0.130,0.030
'14:02.025',0.300,0.000
'14:02.028',0.485,0.010
'14:02.031',0.710,0.030
'14:02.033',0.945,0.105
'14:02.036',1.170,0.185
'14:02.039',1.350,0.295
'14:02.042',1.430,0.415
'14:02.044',1.400,0.555
'14:02.047',1.260,0.650
'14:02.050',1.020,0.705
'14:02.053',0.715,0.650
'14:02.056',0.410,0.510
'14:02.058',0.135,0.320
'14:02.061',-0.085,0.135
'14:02.064',-0.205,0.005
'14:02.067',-0.275,-0.050
'14:02.069',-0.285,-0.085
'14:02.072',-0.255,-0.085
'14:02.075',-0.205,-0.050
'14:02.078',-0.180,0.005
'14:02.081',-0.180,0.040
'14:02.083',-0.185,0.060
'14:02.086',-0.220,0.055
'14:02.089',-0.235,0.035
'14:02.092',-0.270,0.025
'14:02.094',-0.295,0.015
'14:02.097',-0.305,0.025
'14:02.100',-0.310,0.035
'14:02.103',-0.310,0.050
'14:02.106',-0.285,0.045
'14:02.108',-0.295,0.040
'14:02.111',-0.290,0.045
'14:02.114',-0.285,0.045
'14:02.117',-0.295,0.045
'14:02.119',-0.280,0.035
'14:02.122',-0.275,0.015
'14:02.125',-0.285,0.015
'14:02.128',-0.300,0.015
'14:02.131',-0.305,0.030
'14:02.133',-0.310,0.035
'14:02.136',-0.310,0.010
'14:02.139',-0.295,0.000
'14:02.142',-0.275,-0.005
'14:02.144',-0.275,0.000
'14:02.147',-0.270,0.025
'14:02.150',-0.270,0.035
'14:02.153',-0.280,0.050
'14:02.156',-0.270,0.025
'14:02.158',-0.270,-0.005
'14:02.161',-0.270,-0.010
'14:02.164',-0.275,-0.005
'14:02.167',-0.275,0.025
'14:02.169',-0.275,0.020
'14:02.172',-0.270,0.020
'14:02.175',-0.250,0.000
'14:02.178',-0.260,0.010
'14:02.181',-0.250,0.010
'14:02.183',-0.250,-0.010
'14:02.186',-0.250,-0.020
'14:02.189',-0.250,-0.040
'14:02.192',-0.245,-0.055
'14:02.194',-0.240,-0.045
'14:02.197',-0.245,-0.020
'14:02.200',-0.240,-0.015
'14:02.203',-0.235,-0.005
'14:02.206',-0.220,-0.025
'14:02.208',-0.225,-0.040
'14:02.211',-0.220,-0.050
'14:02.214',-0.210,-0.040
'14:02.217',-0.215,-0.030
'14:02.219',-0.220,-0.030
'14:02.222',-0.210,-0.035
'14:02.225',-0.205,-0.065
'14:02.228',-0.220,-0.095
'14:02.231',-0.210,-0.085
'14:02.233',-0.220,-0.085
'14:02.236',-0.220,-0.090
'14:02.239',-0.205,-0.090
'14:02.242',-0.185,-0.110
'14:02.244',-0.190,-0.095
'14:02.247',-0.190,-0.100
'14:02.250',-0.185,-0.075
'14:02.253',-0.175,-0.075
'14:02.256',-0.175,-0.090
'14:02.258',-0.170,-0.120
'14:02.261',-0.170,-0.130
'14:02.264',-0.190,-0.120
'14:02.267',-0.195,-0.110
'14:02.269',-0.190,-0.080
'14:02.272',-0.190,-0.080
'14:02.275',-0.180,-0.090
'14:02.278',-0.185,-0.090
'14:02.281',-0.175,-0.060
'14:02.283',-0.175,-0.060
'14:02.286',-0.175,-0.050
'14:02.289',-0.165,-0.065
'14:02.292',-0.165,-0.105
'14:02.294',-0.170,-0.140
'14:02.297',-0.170,-0.135
'14:02.300',-0.185,-0.120
'14:02.303',-0.175,-0.090
'14:02.306',-0.155,-0.075
'14:02.308',-0.145,-0.060
'14:02.311',-0.130,-0.035
'14:02.314',-0.115,-0.015
'14:02.317',-0.115,0.005
'14:02.319',-0.115,0.010
'14:02.322',-0.110,0.015
'14:02.325',-0.115,0.015
'14:02.328',-0.125,0.010
'14:02.331',-0.110,0.025
'14:02.333',-0.115,0.035
'14:02.336',-0.100,0.055
'14:02.339',-0.110,0.040
'14:02.342',-0.100,0.055
'14:02.344',-0.115,0.060
'14:02.347',-0.120,0.090
'14:02.350',-0.110,0.085
'14:02.353',-0.120,0.070
'14:02.356',-0.110,0.045
'14:02.358',-0.125,0.035
'14:02.361',-0.135,0.035
'14:02.364',-0.145,0.045
'14:02.367',-0.150,0.050
'14:02.369',-0.140,0.050
'14:02.372',-0.140,0.050
'14:02.375',-0.140,0.060
'14:02.378',-0.155,0.080
'14:02.381',-0.130,0.100
'14:02.383',-0.115,0.100
'14:02.386',-0.125,0.075
'14:02.389',-0.115,0.055
'14:02.392',-0.120,0.055
'14:02.394',-0.125,0.060
'14:02.397',-0.140,0.075
'14:02.400',-0.150,0.065
'14:02.403',-0.140,0.045
'14:02.406',-0.140,0.035
'14:02.408',-0.130,0.040
'14:02.411',-0.125,0.055
'14:02.414',-0.125,0.065
'14:02.417',-0.115,0.070
'14:02.419',-0.110,0.055
'14:02.422',-0.105,0.035
'14:02.425',-0.110,0.025
'14:02.428',-0.105,0.045
'14:02.431',-0.125,0.065
'14:02.433',-0.140,0.075
'14:02.436',-0.145,0.070
'14:02.439',-0.130,0.060
'14:02.442',-0.135,0.050
'14:02.444',-0.125,0.065
'14:02.447',-0.110,0.085
'14:02.450',-0.095,0.080
'14:02.453',-0.100,0.065
'14:02.456',-0.090,0.045
'14:02.458',-0.105,0.045
'14:02.461',-0.110,0.035
'14:02.464',-0.120,0.045
'14:02.467',-0.115,0.045
'14:02.469',-0.120,0.035
'14:02.472',-0.110,0.035
'14:02.475',-0.105,0.035
'14:02.478',-0.115,0.040
'14:02.481',-0.100,0.065
'14:02.483',-0.100,0.045
'14:02.486',-0.090,0.050
'14:02.489',-0.085,0.040
'14:02.492',-0.100,0.040
'14:02.494',-0.125,0.055
'14:02.497',-0.130,0.055
'14:02.500',-0.125,0.045
'14:02.503',-0.115,0.035
'14:02.506',-0.115,0.050
'14:02.508',-0.115,0.070
'14:02.511',-0.115,0.085
'14:02.514',-0.105,0.085
'14:02.517',-0.095,0.060
'14:02.519',-0.080,0.050
'14:02.522',-0.085,0.045
'14:02.525',-0.080,0.065
'14:02.528',-0.075,0.085
'14:02.531',-0.075,0.090
'14:02.533',-0.065,0.085
'14:02.536',-0.055,0.075
'14:02.539',-0.045,0.080
'14:02.542',-0.045,0.095
'14:02.544',-0.030,0.115
'14:02.547',-0.005,0.130
'14:02.550',0.020,0.110
'14:02.553',0.040,0.090
'14:02.556',0.045,0.060
'14:02.558',0.045,0.050
'14:02.561',0.035,0.045
'14:02.564',0.030,0.035
'14:02.567',0.020,0.040
'14:02.569',0.015,0.035
'14:02.572',0.020,0.040
'14:02.575',0.015,0.055
'14:02.578',0.015,0.075
'14:02.581',0.035,0.065
'14:02.583',0.035,0.040
'14:02.586',0.015,0.030
'14:02.589',-0.005,0.010
'14:02.592',-0.045,0.015
'14:02.594',-0.080,0.030
'14:02.597',-0.095,0.040
'14:02.600',-0.120,0.045
'14:02.603',-0.130,0.035
'14:02.606',-0.130,0.035
'14:02.608',-0.145,0.040
'14:02.611',-0.165,0.075
'14:02.614',-0.160,0.070
'14:02.617',-0.165,0.065
'14:02.619',-0.180,0.050
'14:02.622',-0.175,0.030
'14:02.625',-0.190,0.025
'14:02.628',-0.195,0.020
'14:02.631',-0.200,0.020
'14:02.633',-0.210,0.015
'14:02.636',-0.200,0.005
'14:02.639',-0.205,0.010
'14:02.642',-0.200,0.015
'14:02.644',-0.205,0.040
'14:02.647',-0.200,0.045
'14:02.650',-0.195,0.035
'14:02.653',-0.210,0.010
'14:02.656',-0.220,-0.020
'14:02.658',-0.230,-0.025
'14:02.661',-0.260,-0.030
'14:02.664',-0.260,-0.020
'14:02.667',-0.265,0.005
'14:02.669',-0.225,0.020
'14:02.672',-0.160,0.020
'14:02.675',-0.060,0.025
'14:02.678',0.055,0.030
'14:02.681',0.230,0.015
'14:02.683',0.405,0.000
'14:02.686',0.620,-0.010
'14:02.689',0.860,-0.015
'14:02.692',1.080,0.035
'14:02.694',1.285,0.130
'14:02.697',1.425,0.245
'14:02.700',1.445,0.380
'14:02.703',1.360,0.500
'14:02.706',1.180,0.555
'14:02.708',0.935,0.550
'14:02.711',0.645,0.490
'14:02.714',0.355,0.380
'14:02.717',0.110,0.220
'14:02.719',-0.070,0.090
'14:02.722',-0.170,-0.030
'14:02.725',-0.235,-0.105
'14:02.728',-0.245,-0.105
'14:02.731',-0.235,-0.065
'14:02.733',-0.215,-0.020
'14:02.736',-0.210,0.045
'14:02.739',-0.205,0.055
'14:02.742',-0.210,0.030
'14:02.744',-0.220,0.020
'14:02.747',-0.250,0.010
'14:02.750',-0.255,0.010
'14:02.753',-0.275,0.010
'14:02.756',-0.270,-0.005
'14:02.758',-0.285,-0.025
'14:02.761',-0.285,-0.040
'14:02.764',-0.300,-0.045
'14:02.767',-0.300,-0.035
'14:02.769',-0.305,-0.025
'14:02.772',-0.300,-0.020
'14:02.775',-0.285,-0.020
'14:02.778',-0.280,-0.015
'14:02.781',-0.290,0.010
'14:02.783',-0.285,0.025
'14:02.786',-0.285,0.025
'14:02.789',-0.290,-0.005
'14:02.792',-0.290,-0.040
'14:02.794',-0.295,-0.065
'14:02.797',-0.300,-0.070
'14:02.800',-0.310,-0.040
'14:02.803',-0.295,-0.020
'14:02.806',-0.290,-0.010
'14:02.808',-0.280,0.000
'14:02.811',-0.275,-0.020
'14:02.814',-0.275,-0.035
'14:02.817',-0.265,-0.030
'14:02.819',-0.265,-0.025
'14:02.822',-0.265,-0.025
'14:02.825',-0.260,-0.045
'14:02.828',-0.265,-0.070
'14:02.831',-0.255,-0.075
'14:02.833',-0.275,-0.060
'14:02.836',-0.285,-0.040
'14:02.839',-0.290,-0.005
'14:02.842',-0.275,0.005
'14:02.844',-0.265,0.000
'14:02.847',-0.240,-0.030
'14:02.850',-0.235,-0.080
'14:02.853',-0.240,-0.070
'14:02.856',-0.240,-0.080
'14:02.858',-0.255,-0.080
'14:02.861',-0.240,-0.070
'14:02.864',-0.245,-0.090
'14:02.867',-0.250,-0.080
'14:02.869',-0.255,-0.080
'14:02.872',-0.255,-0.075
'14:02.875',-0.245,-0.050
'14:02.878',-0.225,-0.060
'14:02.881',-0.210,-0.065
'14:02.883',-0.205,-0.090
'14:02.886',-0.210,-0.105
'14:02.889',-0.215,-0.100
'14:02.892',-0.220,-0.100
'14:02.894',-0.235,-0.100
'14:02.897',-0.235,-0.120
'14:02.900',-0.235,-0.140
'14:02.903',-0.225,-0.160
'14:02.906',-0.230,-0.130
'14:02.908',-0.220,-0.125
'14:02.911',-0.210,-0.125
'14:02.914',-0.190,-0.125
'14:02.917',-0.175,-0.140
'14:02.919',-0.180,-0.125
'14:02.922',-0.190,-0.110
'14:02.925',-0.210,-0.115
'14:02.928',-0.200,-0.115
'14:02.931',-0.205,-0.140
'14:02.933',-0.190,-0.155
'14:02.936',-0.185,-0.155
'14:02.939',-0.195,-0.145
'14:02.942',-0.190,-0.120
'14:02.944',-0.190,-0.125
'14:02.947',-0.180,-0.130
'14:02.950',-0.170,-0.170
'14:02.953',-0.170,-0.160
'14:02.956',-0.170,-0.140
'14:02.958',-0.175,-0.125
'14:02.961',-0.175,-0.115
'14:02.964',-0.170,-0.115
'14:02.967',-0.160,-0.135
'14:02.969',-0.155,-0.130
'14:02.972',-0.140,-0.095
'14:02.975',-0.145,-0.065
'14:02.978',-0.125,-0.035
'14:02.981',-0.110,-0.040
'14:02.983',-0.095,-0.040
'14:02.986',-0.110,-0.045
'14:02.989',-0.105,-0.025
'14:02.992',-0.105,0.010
'14:02.994',-0.100,0.045
'14:02.997',-0.105,0.045
'14:03.000',-0.110,0.035
'14:03.003',-0.115,0.025
'14:03.006',-0.125,0.025
'14:03.008',-0.125,0.040
'14:03.011',-0.115,0.050
'14:03.014',-0.110,0.070
'14:03.017',-0.110,0.055
'14:03.019',-0.100,0.050
'14:03.022',-0.100,0.045
'14:03.025',-0.125,0.050
'14:03.028',-0.130,0.050
'14:03.031',-0.130,0.030
'14:03.033',-0.135,0.015
'14:03.036',-0.135,0.020
'14:03.039',-0.125,0.035
'14:03.042',-0.125,0.050
'14:03.044',-0.115,0.075
'14:03.047',-0.105,0.075
'14:03.050',-0.120,0.060
'14:03.053',-0.115,0.050
'14:03.056',-0.125,0.030
'14:03.058',-0.140,0.045
'14:03.061',-0.140,0.035
'14:03.064',-0.135,0.030
'14:03.067',-0.130,0.030
'14:03.069',-0.135,0.020
'14:03.072',-0.125,0.040
'14:03.075',-0.130,0.055
'14:03.078',-0.130,0.070
'14:03.081',-0.130,0.065
'14:03.083',-0.120,0.060
'14:03.086',-0.125,0.055
'14:03.089',-0.120,0.085
'14:03.092',-0.130,0.075
'14:03.094',-0.130,0.070
'14:03.097',-0.125,0.060
'14:03.100',-0.125,0.025
'14:03.103',-0.125,0.020
'14:03.106',-0.130,0.035
'14:03.108',-0.120,0.045
'14:03.111',-0.110,0.065
'14:03.114',-0.095,0.045
'14:03.117',-0.095,0.030
'14:03.119',-0.110,0.040
'14:03.122',-0.115,0.040
'14:03.125',-0.120,0.040
'14:03.128',-0.125,0.035
'14:03.131',-0.125,0.015
'14:03.133',-0.115,0.020
'14:03.136',-0.125,0.040
'14:03.139',-0.125,0.055
'14:03.142',-0.120,0.050
'14:03.144',-0.105,0.040
'14:03.147',-0.095,0.025
'14:03.150',-0.095,0.025
'14:03.153',-0.100,0.050
'14:03.156',-0.110,0.070
'14:03.158',-0.135,0.065
'14:03.161',-0.130,0.045
'14:03.164',-0.140,0.030
'14:03.167',-0.140,0.020
'14:03.169',-0.135,0.025
'14:03.172',-0.130,0.050
'14:03.175',-0.110,0.045
'14:03.178',-0.100,0.050
'14:03.181',-0.085,0.060
'14:03.183',-0.095,0.075
'14:03.186',-0.095,0.095
'14:03.189',-0.085,0.100
'14:03.192',-0.090,0.090
'14:03.194',-0.070,0.095
'14:03.197',-0.070,0.095
'14:03.200',-0.055,0.120
'14:03.203',-0.050,0.115
'14:03.206',-0.040,0.115
'14:03.208',-0.025,0.095
'14:03.211',-0.005,0.095
'14:03.214',0.010,0.085
'14:03.217',0.035,0.115
'14:03.219',0.050,0.115
'14:03.222',0.075,0.080
'14:03.225',0.060,0.030
'14:03.228',0.040,0.010
'14:03.231',0.020,-0.010
'14:03.233',0.000,0.015
'14:03.236',0.000,0.045
'14:03.239',-0.010,0.040
'14:03.242',0.000,0.035
'14:03.244',-0.010,0.010
'14:03.247',-0.010,0.015
'14:03.250',-0.030,0.020
'14:03.253',-0.040,0.025
'14:03.256',-0.055,0.010
'14:03.258',-0.085,0.000
'14:03.261',-0.100,0.000
'14:03.264',-0.125,0.020
'14:03.267',-0.145,0.045
'14:03.269',-0.150,0.040
'14:03.272',-0.170,0.015
'14:03.275',-0.175,-0.005
'14:03.278',-0.175,0.000
'14:03.281',-0.175,0.025
'14:03.283',-0.170,0.040
'14:03.286',-0.180,0.055
'14:03.289',-0.185,0.045
'14:03.292',-0.205,0.035
'14:03.294',-0.205,0.035
'14:03.297',-0.220,0.040
'14:03.300',-0.220,0.035
'14:03.303',-0.215,0.040
'14:03.306',-0.200,0.035
'14:03.308',-0.210,0.035
'14:03.311',-0.210,0.050
'14:03.314',-0.220,0.045
'14:03.317',-0.220,0.025
'14:03.319',-0.235,-0.015
'14:03.322',-0.230,-0.050
'14:03.325',-0.215,-0.050
'14:03.328',-0.160,-0.030
'14:03.331',-0.065,-0.035
'14:03.333',0.045,-0.025
'14:03.336',0.200,-0.030
'14:03.339',0.390,-0.040
'14:03.342',0.625,-0.020
'14:03.344',0.865,0.035
'14:03.347',1.120,0.155
'14:03.350',1.305,0.270
'14:03.353',1.400,0.400
'14:03.356',1.375,0.505
'14:03.358',1.230,0.580
'14:03.361',0.985,0.610
'14:03.364',0.680,0.570
'14:03.367',0.385,0.455
'14:03.369',0.125,0.280
'14:03.372',-0.090,0.110
'14:03.375',-0.210,-0.020
'14:03.378',-0.250,-0.090
'14:03.381',-0.235,-0.080
'14:03.383',-0.195,-0.055
'14:03.386',-0.160,-0.015
'14:03.389',-0.140,0.005
'14:03.392',-0.145,0.015
'14:03.394',-0.185,0.030
'14:03.397',-0.225,0.035
'14:03.400',-0.260,0.020
'14:03.403',-0.275,0.000
'14:03.406',-0.275,-0.005
'14:03.408',-0.275,0.015
'14:03.411',-0.265,0.045
'14:03.414',-0.270,0.075
'14:03.417',-0.260,0.060
'14:03.419',-0.265,0.045
'14:03.422',-0.280,0.020
'14:03.425',-0.285,0.030
'14:03.428',-0.290,0.025
'14:03.431',-0.295,0.015
'14:03.433',-0.300,-0.005
'14:03.436',-0.300,-0.015
'14:03.439',-0.295,-0.020
'14:03.442',-0.295,0.000
'14:03.444',-0.285,0.035
'14:03.447',-0.275,0.050
'14:03.450',-0.260,0.050
'14:03.453',-0.265,0.010
'14:03.456',-0.265,-0.010
'14:03.458',-0.275,-0.005
'14:03.461',-0.285,-0.010
'14:03.464',-0.290,0.000
'14:03.467',-0.290,0.005
'14:03.469',-0.280,-0.020
'14:03.472',-0.285,-0.020
'14:03.475',-0.270,-0.020
'14:03.478',-0.270,0.015
'14:03.481',-0.260,0.025
'14:03.483',-0.260,0.025
'14:03.486',-0.255,0.015
'14:03.489',-0.250,-0.015
'14:03.492',-0.265,-0.035
'14:03.494',-0.260,-0.030
'14:03.497',-0.270,-0.020
'14:03.500',-0.265,-0.015
'14:03.503',-0.265,-0.025
'14:03.506',-0.265,-0.045
'14:03.508',-0.240,-0.065
'14:03.511',-0.240,-0.050
'14:03.514',-0.235,-0.030
'14:03.517',-0.235,-0.025
'14:03.519',-0.230,-0.020
'14:03.522',-0.220,-0.045
'14:03.525',-0.220,-0.065
'14:03.528',-0.215,-0.075
'14:03.531',-0.220,-0.070
'14:03.533',-0.220,-0.070
'14:03.536',-0.230,-0.060
'14:03.539',-0.210,-0.060
'14:03.542',-0.210,-0.085
'14:03.544',-0.195,-0.080
'14:03.547',-0.195,-0.070
'14:03.550',-0.190,-0.060
'14:03.553',-0.200,-0.070
'14:03.556',-0.205,-0.080
'14:03.558',-0.205,-0.115
'14:03.561',-0.215,-0.135
'14:03.564',-0.220,-0.125
'14:03.567',-0.220,-0.105
'14:03.569',-0.210,-0.090
'14:03.572',-0.200,-0.110
'14:03.575',-0.170,-0.120
'14:03.578',-0.155,-0.125
'14:03.581',-0.155,-0.115
'14:03.583',-0.170,-0.095
'14:03.586',-0.170,-0.080
'14:03.589',-0.170,-0.080
'14:03.592',-0.170,-0.100
'14:03.594',-0.180,-0.115
'14:03.597',-0.185,-0.130
'14:03.600',-0.195,-0.125
'14:03.603',-0.200,-0.105
'14:03.606',-0.210,-0.085
'14:03.608',-0.190,-0.090
'14:03.611',-0.175,-0.110
'14:03.614',-0.165,-0.125
'14:03.617',-0.165,-0.110
'14:03.619',-0.160,-0.080
'14:03.622',-0.155,-0.060
'14:03.625',-0.155,-0.030
'14:03.628',-0.145,-0.055
'14:03.631',-0.140,-0.060
'14:03.633',-0.140,-0.060
'14:03.636',-0.145,-0.040
'14:03.639',-0.145,-0.020
'14:03.642',-0.130,0.010
'14:03.644',-0.110,0.020
'14:03.647',-0.100,0.040
'14:03.650',-0.105,0.020
'14:03.653',-0.125,0.050
'14:03.656',-0.120,0.055
'14:03.658',-0.135,0.080
'14:03.661',-0.130,0.070
'14:03.664',-0.145,0.060
'14:03.667',-0.145,0.055
'14:03.669',-0.150,0.065
'14:03.672',-0.140,0.090
'14:03.675',-0.130,0.120
'14:03.678',-0.125,0.115
'14:03.681',-0.115,0.100
'14:03.683',-0.110,0.075
'14:03.686',-0.120,0.040
'14:03.689',-0.115,0.045
'14:03.692',-0.135,0.060
'14:03.694',-0.145,0.070
'14:03.697',-0.145,0.050
'14:03.700',-0.150,0.050
'14:03.703',-0.155,0.040
'14:03.706',-0.150,0.045
'14:03.708',-0.145,0.080
'14:03.711',-0.140,0.100
'14:03.714',-0.135,0.095
'14:03.717',-0.130,0.075
'14:03.719',-0.115,0.065
'14:03.722',-0.115,0.055
'14:03.725',-0.130,0.055
'14:03.728',-0.125,0.065
'14:03.731',-0.130,0.070
'14:03.733',-0.135,0.055
'14:03.736',-0.140,0.045
'14:03.739',-0.135,0.055
'14:03.742',-0.145,0.055
'14:03.744',-0.135,0.080
'14:03.747',-0.125,0.080
'14:03.750',-0.135,0.060
'14:03.753',-0.140,0.055
'14:03.756',-0.125,0.045
'14:03.758',-0.150,0.045
'14:03.761',-0.160,0.060
'14:03.764',-0.160,0.075
'14:03.767',-0.165,0.050
'14:03.769',-0.145,0.030
'14:03.772',-0.150,0.055
'14:03.775',-0.135,0.060
'14:03.778',-0.130,0.095
'14:03.781',-0.125,0.105
'14:03.783',-0.105,0.090
'14:03.786',-0.095,0.075
'14:03.789',-0.100,0.065
'14:03.792',-0.120,0.050
'14:03.794',-0.110,0.065
'14:03.797',-0.120,0.070
'14:03.800',-0.125,0.065
'14:03.803',-0.115,0.060
'14:03.806',-0.120,0.050
'14:03.808',-0.125,0.070
'14:03.811',-0.115,0.100
'14:03.814',-0.115,0.100
'14:03.817',-0.110,0.090
'14:03.819',-0.105,0.060
'14:03.822',-0.095,0.035
'14:03.825',-0.110,0.035
'14:03.828',-0.120,0.035
'14:03.831',-0.125,0.075
'14:03.833',-0.140,0.095
'14:03.836',-0.115,0.080
'14:03.839',-0.120,0.065
'14:03.842',-0.110,0.065
'14:03.844',-0.095,0.085
'14:03.847',-0.095,0.125
'14:03.850',-0.085,0.130
'14:03.853',-0.095,0.105
'14:03.856',-0.080,0.090
'14:03.858',-0.070,0.070
'14:03.861',-0.080,0.065
'14:03.864',-0.075,0.090
'14:03.867',-0.055,0.120
'14:03.869',-0.045,0.130
'14:03.872',-0.020,0.120
'14:03.875',0.005,0.110
'14:03.878',0.000,0.120
'14:03.881',0.005,0.125
'14:03.883',0.015,0.120
'14:03.886',0.030,0.105
'14:03.889',0.050,0.065
'14:03.892',0.060,0.045
'14:03.894',0.075,0.050
'14:03.897',0.040,0.075
'14:03.900',0.045,0.090
'14:03.903',0.035,0.115
'14:03.906',0.015,0.095
'14:03.908',0.010,0.080
'14:03.911',0.020,0.065
'14:03.914',0.015,0.070
'14:03.917',0.015,0.085
'14:03.919',-0.005,0.085
'14:03.922',-0.020,0.070
'14:03.925',-0.060,0.050
'14:03.928',-0.075,0.030
'14:03.931',-0.110,0.035
'14:03.933',-0.125,0.035
'14:03.936',-0.135,0.040
'14:03.939',-0.140,0.045
'14:03.942',-0.155,0.045
'14:03.944',-0.155,0.055
'14:03.947',-0.160,0.080
'14:03.950',-0.165,0.100
'14:03.953',-0.180,0.090
'14:03.956',-0.180,0.055
'14:03.958',-0.185,0.025
'14:03.961',-0.185,0.010
'14:03.964',-0.215,0.030
'14:03.967',-0.215,0.060
'14:03.969',-0.190,0.065
'14:03.972',-0.190,0.070
'14:03.975',-0.190,0.045
'14:03.978',-0.195,0.040
'14:03.981',-0.200,0.055
'14:03.983',-0.205,0.050
'14:03.986',-0.215,0.060
'14:03.989',-0.220,0.030
'14:03.992',-0.220,0.000
'14:03.994',-0.240,-0.015
'14:03.997',-0.240,-0.005
'14:04.000',-0.215,0.020
'14:04.003',-0.155,0.030
'14:04.006',-0.060,0.010
'14:04.008',0.085,0.010
'14:04.011',0.270,-0.005
'14:04.014',0.465,-0.005
'14:04.017',0.700,0.015
'14:04.019',0.935,0.080
'14:04.022',1.160,0.145
'14:04.025',1.350,0.255
'14:04.028',1.435,0.370
'14:04.031',1.430,0.500
'14:04.033',1.305,0.635
'14:04.036',1.070,0.685
'14:04.039',0.785,0.660
'14:04.042',0.475,0.565
'14:04.044',0.210,0.400
'14:04.047',-0.010,0.230
'14:04.050',-0.145,0.080
'14:04.053',-0.225,-0.025
'14:04.056',-0.245,-0.075
'14:04.058',-0.240,-0.085
'14:04.061',-0.215,-0.070
'14:04.064',-0.195,-0.035
'14:04.067',-0.190,0.010
'14:04.069',-0.195,0.055
'14:04.072',-0.210,0.065
'14:04.075',-0.230,0.050
'14:04.078',-0.245,0.030
'14:04.081',-0.270,0.035
'14:04.083',-0.265,0.030
'14:04.086',-0.270,0.025
'14:04.089',-0.275,0.035
'14:04.092',-0.260,0.025
'14:04.094',-0.270,-0.010
'14:04.097',-0.270,-0.005
'14:04.100',-0.280,0.015
'14:04.103',-0.285,0.015
'14:04.106',-0.285,0.020
'14:04.108',-0.270,0.020
'14:04.111',-0.275,0.025
'14:04.114',-0.255,0.040
'14:04.117',-0.260,0.050
'14:04.119',-0.270,0.060
'14:04.122',-0.270,0.035
'14:04.125',-0.275,0.000
'14:04.128',-0.275,-0.005
'14:04.131',-0.280,0.005
'14:04.133',-0.285,0.005
'14:04.136',-0.270,0.015
'14:04.139',-0.275,0.010
'14:04.142',-0.275,-0.010
'14:04.144',-0.255,0.000
'14:04.147',-0.265,0.020
'14:04.150',-0.265,0.030
'14:04.153',-0.260,0.035
'14:04.156',-0.255,0.015
'14:04.158',-0.260,-0.015
'14:04.161',-0.245,-0.040
'14:04.164',-0.265,-0.050
'14:04.167',-0.270,-0.040
'14:04.169',-0.260,-0.010
'14:04.172',-0.265,-0.010
'14:04.175',-0.250,-0.010
'14:04.178',-0.240,-0.005
'14:04.181',-0.230,0.000
'14:04.183',-0.225,0.010
'14:04.186',-0.235,-0.015
'14:04.189',-0.245,-0.030
'14:04.192',-0.245,-0.065
'14:04.194',-0.230,-0.080
'14:04.197',-0.235,-0.070
'14:04.200',-0.245,-0.035
'14:04.203',-0.250,-0.010
'14:04.206',-0.260,-0.005
'14:04.208',-0.235,-0.015
'14:04.211',-0.220,-0.035
'14:04.214',-0.210,-0.060
'14:04.217',-0.210,-0.055
'14:04.219',-0.215,-0.050
'14:04.222',-0.210,-0.060
'14:04.225',-0.220,-0.085
'14:04.228',-0.220,-0.110
'14:04.231',-0.205,-0.115
'14:04.233',-0.225,-0.110
'14:04.236',-0.235,-0.085
'14:04.239',-0.245,-0.090
'14:04.242',-0.230,-0.085
'14:04.244',-0.220,-0.085
'14:04.247',-0.205,-0.095
'14:04.250',-0.200,-0.090
'14:04.253',-0.190,-0.080
'14:04.256',-0.170,-0.070
'14:04.258',-0.190,-0.065
'14:04.261',-0.195,-0.080
'14:04.264',-0.210,-0.105
'14:04.267',-0.215,-0.110
'14:04.269',-0.220,-0.110
'14:04.272',-0.225,-0.100
'14:04.275',-0.210,-0.090
'14:04.278',-0.195,-0.085
'14:04.281',-0.185,-0.100
'14:04.283',-0.185,-0.115
'14:04.286',-0.175,-0.105
'14:04.289',-0.190,-0.085
'14:04.292',-0.200,-0.070
'14:04.294',-0.185,-0.070
'14:04.297',-0.185,-0.080
'14:04.300',-0.175,-0.085
'14:04.303',-0.155,-0.085
'14:04.306',-0.145,-0.060
'14:04.308',-0.150,-0.035
'14:04.311',-0.140,-0.020
'14:04.314',-0.115,0.015
'14:04.317',-0.110,0.010
'14:04.319',-0.110,0.025
'14:04.322',-0.110,0.050
'14:04.325',-0.130,0.075
'14:04.328',-0.145,0.095
'14:04.331',-0.140,0.095
'14:04.333',-0.130,0.070
'14:04.336',-0.140,0.035
'14:04.339',-0.145,0.030
'14:04.342',-0.130,0.040
'14:04.344',-0.130,0.060
'14:04.347',-0.125,0.075
'14:04.350',-0.120,0.085
'14:04.353',-0.115,0.100
'14:04.356',-0.120,0.095
'14:04.358',-0.140,0.090
'14:04.361',-0.165,0.085
'14:04.364',-0.175,0.080
'14:04.367',-0.185,0.070
'14:04.369',-0.175,0.050
'14:04.372',-0.175,0.040
'14:04.375',-0.155,0.065
'14:04.378',-0.145,0.090
'14:04.381',-0.135,0.110
'14:04.383',-0.120,0.110
'14:04.386',-0.125,0.090
'14:04.389',-0.145,0.085
'14:04.392',-0.145,0.085
'14:04.394',-0.160,0.085
'14:04.397',-0.160,0.055
'14:04.400',-0.160,0.065
'14:04.403',-0.165,0.045
'14:04.406',-0.155,0.050
'14:04.408',-0.160,0.065
'14:04.411',-0.150,0.085
'14:04.414',-0.145,0.095
'14:04.417',-0.125,0.080
'14:04.419',-0.120,0.065
'14:04.422',-0.110,0.055
'14:04.425',-0.125,0.050
'14:04.428',-0.130,0.065
'14:04.431',-0.155,0.110
'14:04.433',-0.155,0.105
'14:04.436',-0.155,0.085
'14:04.439',-0.145,0.070
'14:04.442',-0.155,0.055
'14:04.444',-0.155,0.055
'14:04.447',-0.150,0.060
'14:04.450',-0.145,0.055
'14:04.453',-0.125,0.045
'14:04.456',-0.120,0.025
'14:04.458',-0.130,0.035
'14:04.461',-0.135,0.035
'14:04.464',-0.145,0.070
'14:04.467',-0.160,0.090
'14:04.469',-0.160,0.075
'14:04.472',-0.160,0.050
'14:04.475',-0.160,0.055
'14:04.478',-0.150,0.060
'14:04.481',-0.140,0.070
'14:04.483',-0.135,0.080
'14:04.486',-0.130,0.075
'14:04.489',-0.125,0.060
'14:04.492',-0.130,0.050
'14:04.494',-0.135,0.050
'14:04.497',-0.140,0.060
'14:04.500',-0.160,0.060
'14:04.503',-0.160,0.050
'14:04.506',-0.140,0.045
'14:04.508',-0.135,0.050
'14:04.511',-0.130,0.045
'14:04.514',-0.115,0.075
'14:04.517',-0.125,0.100
'14:04.519',-0.120,0.090
'14:04.522',-0.125,0.070
'14:04.525',-0.125,0.065
'14:04.528',-0.135,0.055
'14:04.531',-0.135,0.080
'14:04.533',-0.120,0.095
'14:04.536',-0.110,0.105
'14:04.539',-0.090,0.105
'14:04.542',-0.085,0.100
'14:04.544',-0.070,0.115
'14:04.547',-0.070,0.145
'14:04.550',-0.065,0.145
'14:04.553',-0.065,0.155
'14:04.556',-0.045,0.125
'14:04.558',-0.005,0.105
'14:04.561',0.000,0.075
'14:04.564',0.010,0.060
'14:04.567',-0.005,0.065
'14:04.569',-0.010,0.070
'14:04.572',-0.020,0.070
'14:04.575',-0.015,0.055
'14:04.578',-0.015,0.045
'14:04.581',-0.010,0.035
'14:04.583',-0.010,0.050
'14:04.586',0.000,0.040
'14:04.589',0.000,0.035
'14:04.592',-0.010,0.025
'14:04.594',-0.030,0.010
'14:04.597',-0.070,0.035
'14:04.600',-0.095,0.050
'14:04.603',-0.120,0.070
'14:04.606',-0.140,0.080
'14:04.608',-0.155,0.080
'14:04.611',-0.160,0.060
'14:04.614',-0.175,0.045
'14:04.617',-0.185,0.050
'14:04.619',-0.215,0.055
'14:04.622',-0.215,0.035
'14:04.625',-0.215,0.015
'14:04.628',-0.225,-0.010
'14:04.631',-0.225,-0.015
'14:04.633',-0.240,0.000
'14:04.636',-0.250,0.040
'14:04.639',-0.250,0.070
'14:04.642',-0.255,0.070
'14:04.644',-0.245,0.060
'14:04.647',-0.240,0.030
'14:04.650',-0.235,0.020
'14:04.653',-0.245,0.030
'14:04.656',-0.235,0.030
'14:04.658',-0.240,0.035
'14:04.661',-0.255,0.000
'14:04.664',-0.270,-0.005
'14:04.667',-0.290,-0.015
'14:04.669',-0.315,-0.005
'14:04.672',-0.310,0.000
'14:04.675',-0.275,0.005
'14:04.678',-0.215,0.000
'14:04.681',-0.120,0.000
'14:04.683',-0.010,-0.005
'14:04.686',0.145,0.025
'14:04.689',0.330,0.020
'14:04.692',0.545,0.040
'14:04.694',0.770,0.025
'14:04.697',1.000,0.060
'14:04.700',1.225,0.130
'14:04.703',1.365,0.255
'14:04.706',1.425,0.385
'14:04.708',1.355,0.500
'14:04.711',1.175,0.565
'14:04.714',0.920,0.565
'14:04.717',0.615,0.500
'14:04.719',0.310,0.395
'14:04.722',0.040,0.245
'14:04.725',-0.170,0.070
'14:04.728',-0.260,-0.070
'14:04.731',-0.315,-0.150
'14:04.733',-0.325,-0.155
'14:04.736',-0.310,-0.100
'14:04.739',-0.275,-0.045
'14:04.742',-0.250,0.010
'14:04.744',-0.240,0.015
'14:04.747',-0.255,0.010
'14:04.750',-0.265,0.005
'14:04.753',-0.320,0.005
'14:04.756',-0.345,0.005
'14:04.758',-0.350,-0.010
'14:04.761',-0.360,-0.035
'14:04.764',-0.365,-0.070
'14:04.767',-0.370,-0.060
'14:04.769',-0.360,-0.040
'14:04.772',-0.360,-0.005
'14:04.775',-0.355,0.025
'14:04.778',-0.350,0.040
'14:04.781',-0.355,0.035
'14:04.783',-0.365,0.045
'14:04.786',-0.370,0.055
'14:04.789',-0.375,0.040
'14:04.792',-0.375,0.005
'14:04.794',-0.365,-0.030
'14:04.797',-0.370,-0.055
'14:04.800',-0.365,-0.045
'14:04.803',-0.375,-0.030
'14:04.806',-0.370,-0.025
'14:04.808',-0.350,-0.010
'14:04.811',-0.350,-0.005
'14:04.814',-0.335,-0.020
'14:04.817',-0.345,-0.020
'14:04.819',-0.355,-0.020
'14:04.822',-0.350,-0.020
'14:04.825',-0.355,-0.050
'14:04.828',-0.360,-0.055
'14:04.831',-0.355,-0.070
'14:04.833',-0.355,-0.045
'14:04.836',-0.355,-0.020
'14:04.839',-0.350,0.000
'14:04.842',-0.345,0.005
'14:04.844',-0.345,-0.020
'14:04.847',-0.350,-0.010
'14:04.850',-0.335,-0.030
'14:04.853',-0.335,-0.015
'14:04.856',-0.340,-0.025
'14:04.858',-0.330,-0.040
'14:04.861',-0.340,-0.065
'14:04.864',-0.350,-0.080
'14:04.867',-0.350,-0.085
'14:04.869',-0.350,-0.080
'14:04.872',-0.340,-0.080
'14:04.875',-0.315,-0.070
'14:04.878',-0.310,-0.070
'14:04.881',-0.295,-0.075
'14:04.883',-0.305,-0.070
'14:04.886',-0.310,-0.065
'14:04.889',-0.310,-0.080
'14:04.892',-0.300,-0.100
'14:04.894',-0.290,-0.135
'14:04.897',-0.305,-0.135
'14:04.900',-0.300,-0.110
'14:04.903',-0.315,-0.095
'14:04.906',-0.330,-0.085
'14:04.908',-0.325,-0.075
'14:04.911',-0.310,-0.100
'14:04.914',-0.300,-0.120
'14:04.917',-0.295,-0.135
'14:04.919',-0.290,-0.135
'14:04.922',-0.275,-0.145
'14:04.925',-0.255,-0.140
'14:04.928',-0.265,-0.150
'14:04.931',-0.285,-0.130
'14:04.933',-0.295,-0.130
'14:04.936',-0.300,-0.110
'14:04.939',-0.305,-0.125
'14:04.942',-0.295,-0.150
'14:04.944',-0.290,-0.160
'14:04.947',-0.270,-0.160
'14:04.950',-0.255,-0.140
'14:04.953',-0.240,-0.125
'14:04.956',-0.235,-0.110
'14:04.958',-0.240,-0.090
'14:04.961',-0.250,-0.090
'14:04.964',-0.270,-0.065
'14:04.967',-0.275,-0.060
'14:04.969',-0.270,-0.065
'14:04.972',-0.250,-0.080
'14:04.975',-0.235,-0.085
'14:04.978',-0.215,-0.045
'14:04.981',-0.225,0.015
'14:04.983',-0.215,0.030
'14:04.986',-0.225,0.040
'14:04.989',-0.235,0.030
'14:04.992',-0.235,0.010
'14:04.994',-0.250,0.010
'14:04.997',-0.245,0.015
'14:05.000',-0.260,0.025
'14:05.003',-0.255,0.040
'14:05.006',-0.265,0.050
'14:05.008',-0.255,0.035
'14:05.011',-0.255,0.060
'14:05.014',-0.250,0.090
'14:05.017',-0.250,0.085
'14:05.019',-0.260,0.070
'14:05.022',-0.245,0.040
'14:05.025',-0.255,0.025
'14:05.028',-0.260,0.020
'14:05.031',-0.275,0.040
'14:05.033',-0.285,0.050
'14:05.036',-0.280,0.045
'14:05.039',-0.295,0.030
'14:05.042',-0.270,0.015
'14:05.044',-0.280,0.040
'14:05.047',-0.255,0.050
'14:05.050',-0.260,0.045
'14:05.053',-0.260,0.035
'14:05.056',-0.260,0.030
'14:05.058',-0.265,0.030
'14:05.061',-0.285,0.045
'14:05.064',-0.290,0.065
'14:05.067',-0.290,0.065
'14:05.069',-0.285,0.045
'14:05.072',-0.280,0.040
'14:05.075',-0.270,0.050
'14:05.078',-0.280,0.065
'14:05.081',-0.285,0.070
'14:05.083',-0.265,0.060
'14:05.086',-0.255,0.045
'14:05.089',-0.260,0.020
'14:05.092',-0.260,0.015
'14:05.094',-0.285,0.015
'14:05.097',-0.295,0.030
'14:05.100',-0.290,0.035
'14:05.103',-0.290,0.040
'14:05.106',-0.280,0.030
'14:05.108',-0.270,0.035
'14:05.111',-0.265,0.040
'14:05.114',-0.260,0.055
'14:05.117',-0.265,0.060
'14:05.119',-0.255,0.055
'14:05.122',-0.250,0.040
'14:05.125',-0.255,0.050
'14:05.128',-0.270,0.065
'14:05.131',-0.285,0.065
'14:05.133',-0.290,0.065
'14:05.136',-0.280,0.040
'14:05.139',-0.275,0.020
'14:05.142',-0.270,0.015
'14:05.144',-0.265,0.030
'14:05.147',-0.255,0.040
'14:05.150',-0.245,0.035
'14:05.153',-0.230,0.025
'14:05.156',-0.240,0.010
'14:05.158',-0.245,0.005
'14:05.161',-0.255,0.005
'14:05.164',-0.275,0.045
'14:05.167',-0.300,0.055
'14:05.169',-0.295,0.060
'14:05.172',-0.285,0.045
'14:05.175',-0.275,0.050
'14:05.178',-0.270,0.055
'14:05.181',-0.260,0.070
'14:05.183',-0.245,0.075
'14:05.186',-0.230,0.075
'14:05.189',-0.215,0.065
'14:05.192',-0.205,0.060
'14:05.194',-0.215,0.080
'14:05.197',-0.225,0.095
'14:05.200',-0.235,0.090
'14:05.203',-0.260,0.095
'14:05.206',-0.265,0.070
'14:05.208',-0.260,0.060
'14:05.211',-0.255,0.070
'14:05.214',-0.240,0.080
'14:05.217',-0.235,0.070
'14:05.219',-0.225,0.035
'14:05.222',-0.230,-0.025
'14:05.225',-0.240,-0.070
'14:05.228',-0.260,-0.080
'14:05.231',-0.290,-0.045
'14:05.233',-0.300,-0.040
'14:05.236',-0.295,-0.010
'14:05.239',-0.300,0.005
'14:05.242',-0.290,0.020
'14:05.244',-0.290,0.035
'14:05.247',-0.310,0.055
'14:05.250',-0.310,0.055
'14:05.253',-0.310,0.035
'14:05.256',-0.315,0.010
'14:05.258',-0.335,-0.035
'14:05.261',-0.330,-0.035
'14:05.264',-0.330,-0.040
'14:05.267',-0.335,-0.015
'14:05.269',-0.345,0.000
'14:05.272',-0.355,-0.010
'14:05.275',-0.355,-0.010
'14:05.278',-0.360,-0.005
'14:05.281',-0.340,0.020
'14:05.283',-0.285,0.045
'14:05.286',-0.205,0.055
'14:05.289',-0.075,0.025
'14:05.292',0.090,-0.025
'14:05.294',0.290,-0.055
'14:05.297',0.485,-0.050
'14:05.300',0.710,-0.030
'14:05.303',0.945,0.040
'14:05.306',1.165,0.135
'14:05.308',1.320,0.245
'14:05.311',1.365,0.405
'14:05.314',1.275,0.540
'14:05.317',1.085,0.660
'14:05.319',0.785,0.665
'14:05.322',0.485,0.575
'14:05.325',0.180,0.395
'14:05.328',-0.045,0.210
'14:05.331',-0.205,0.055
'14:05.333',-0.310,-0.040
'14:05.336',-0.355,-0.090
'14:05.339',-0.340,-0.080
'14:05.342',-0.315,-0.065
'14:05.344',-0.295,-0.030
'14:05.347',-0.300,0.000
'14:05.350',-0.320,0.040
'14:05.353',-0.355,0.050
'14:05.356',-0.385,0.030
'14:05.358',-0.425,-0.010
'14:05.361',-0.435,-0.030
'14:05.364',-0.455,-0.030
'14:05.367',-0.450,-0.015
'14:05.369',-0.445,-0.030
'14:05.372',-0.445,-0.025
'14:05.375',-0.450,-0.060
'14:05.378',-0.440,-0.050
'14:05.381',-0.435,-0.030
'14:05.383',-0.440,0.025
'14:05.386',-0.440,0.070
'14:05.389',-0.455,0.075
'14:05.392',-0.465,0.045
'14:05.394',-0.475,0.000
'14:05.397',-0.490,-0.025
'14:05.400',-0.490,-0.035
'14:05.403',-0.500,-0.035
'14:05.406',-0.480,-0.015
'14:05.408',-0.465,-0.030
'14:05.411',-0.470,-0.015
'14:05.414',-0.450,-0.015
'14:05.417',-0.455,0.005
'14:05.419',-0.470,0.025
'14:05.422',-0.470,0.020
'14:05.425',-0.490,0.000
'14:05.428',-0.485,-0.025
'14:05.431',-0.500,-0.025
'14:05.433',-0.505,-0.010
'14:05.436',-0.495,-0.005
'14:05.439',-0.495,-0.010
'14:05.442',-0.480,-0.015
'14:05.444',-0.460,-0.050
'14:05.447',-0.465,-0.050
'14:05.450',-0.450,-0.045
'14:05.453',-0.450,-0.005
'14:05.456',-0.450,0.010
'14:05.458',-0.455,0.000
'14:05.461',-0.470,-0.015
'14:05.464',-0.485,-0.015
'14:05.467',-0.485,-0.025
'14:05.469',-0.485,-0.030
'14:05.472',-0.480,-0.050
'14:05.475',-0.460,-0.070
'14:05.478',-0.450,-0.080
'14:05.481',-0.440,-0.075
'14:05.483',-0.445,-0.075
'14:05.486',-0.435,-0.060
'14:05.489',-0.420,-0.070
'14:05.492',-0.415,-0.085
'14:05.494',-0.420,-0.100
'14:05.497',-0.440,-0.110
'14:05.500',-0.465,-0.110
'14:05.503',-0.480,-0.085
'14:05.506',-0.480,-0.080
'14:05.508',-0.480,-0.095
'14:05.511',-0.455,-0.110
'14:05.514',-0.440,-0.115
'14:05.517',-0.430,-0.120
'14:05.519',-0.430,-0.105
'14:05.522',-0.435,-0.100
'14:05.525',-0.440,-0.115
'14:05.528',-0.440,-0.135
'14:05.531',-0.450,-0.125
'14:05.533',-0.470,-0.110
'14:05.536',-0.480,-0.105
'14:05.539',-0.470,-0.105
'14:05.542',-0.465,-0.110
'14:05.544',-0.450,-0.145
'14:05.547',-0.445,-0.130
'14:05.550',-0.435,-0.125
'14:05.553',-0.435,-0.115
'14:05.556',-0.465,-0.135
'14:05.558',-0.460,-0.140
'14:05.561',-0.450,-0.150
'14:05.564',-0.430,-0.165
'14:05.567',-0.430,-0.140
'14:05.569',-0.435,-0.100
'14:05.572',-0.430,-0.080
'14:05.575',-0.410,-0.055
'14:05.578',-0.405,-0.050
'14:05.581',-0.395,-0.040
'14:05.583',-0.385,-0.020
'14:05.586',-0.385,0.005
'14:05.589',-0.380,0.015
'14:05.592',-0.385,0.020
'14:05.594',-0.390,0.010
'14:05.597',-0.395,0.000
'14:05.600',-0.405,0.010
'14:05.603',-0.410,0.015
'14:05.606',-0.400,0.020
'14:05.608',-0.380,0.025
'14:05.611',-0.360,0.020
'14:05.614',-0.350,0.035
'14:05.617',-0.355,0.050
'14:05.619',-0.370,0.075
'14:05.622',-0.390,0.080
'14:05.625',-0.395,0.040
'14:05.628',-0.405,0.015
'14:05.631',-0.415,0.005
'14:05.633',-0.415,0.000
'14:05.636',-0.420,0.000
'14:05.639',-0.410,0.015
'14:05.642',-0.395,0.035
'14:05.644',-0.385,0.020
'14:05.647',-0.380,0.045
'14:05.650',-0.380,0.065
'14:05.653',-0.385,0.085
'14:05.656',-0.400,0.085
'14:05.658',-0.410,0.065
'14:05.661',-0.405,0.030
'14:05.664',-0.420,0.025
'14:05.667',-0.420,0.035
'14:05.669',-0.420,0.045
'14:05.672',-0.415,0.035
'14:05.675',-0.410,0.045
'14:05.678',-0.390,0.030
'14:05.681',-0.385,0.045
'14:05.683',-0.390,0.065
'14:05.686',-0.400,0.075
'14:05.689',-0.405,0.055
'14:05.692',-0.415,0.020
'14:05.694',-0.420,0.005
'14:05.697',-0.430,-0.005
'14:05.700',-0.425,0.015
'14:05.703',-0.420,0.030
'14:05.706',-0.415,0.035
'14:05.708',-0.400,0.040
'14:05.711',-0.390,0.045
'14:05.714',-0.390,0.055
'14:05.717',-0.395,0.060
'14:05.719',-0.410,0.070
'14:05.722',-0.400,0.055
'14:05.725',-0.400,0.005
'14:05.728',-0.400,-0.005
'14:05.731',-0.415,-0.010
'14:05.733',-0.415,0.015
'14:05.736',-0.405,0.025
'14:05.739',-0.410,0.040
'14:05.742',-0.400,0.060
'14:05.744',-0.410,0.065
'14:05.747',-0.420,0.085
'14:05.750',-0.420,0.080
'14:05.753',-0.410,0.070
'14:05.756',-0.415,0.040
'14:05.758',-0.415,0.020
'14:05.761',-0.400,0.030
'14:05.764',-0.420,0.035
'14:05.767',-0.425,0.060
'14:05.769',-0.430,0.050
'14:05.772',-0.440,0.050
'14:05.775',-0.435,0.045
'14:05.778',-0.425,0.055
'14:05.781',-0.420,0.065
'14:05.783',-0.420,0.050
'14:05.786',-0.420,0.025
'14:05.789',-0.435,-0.010
'14:05.792',-0.455,-0.025
'14:05.794',-0.475,-0.025
'14:05.797',-0.495,-0.010
'14:05.800',-0.490,-0.005
'14:05.803',-0.505,-0.010
'14:05.806',-0.520,-0.005
'14:05.808',-0.540,0.015
'14:05.811',-0.545,0.025
'14:05.814',-0.545,0.040
'14:05.817',-0.545,0.025
'14:05.819',-0.530,0.005
'14:05.822',-0.510,-0.010
'14:05.825',-0.490,0.010
'14:05.828',-0.485,0.040
'14:05.831',-0.480,0.065
'14:05.833',-0.465,0.075
'14:05.836',-0.460,0.085
'14:05.839',-0.460,0.090
'14:05.842',-0.465,0.105
'14:05.844',-0.450,0.095
'14:05.847',-0.435,0.105
'14:05.850',-0.430,0.080
'14:05.853',-0.430,0.040
'14:05.856',-0.445,0.025
'14:05.858',-0.455,0.015
'14:05.861',-0.485,0.005
'14:05.864',-0.505,0.010
'14:05.867',-0.515,0.000
'14:05.869',-0.485,-0.005
'14:05.872',-0.425,0.015
'14:05.875',-0.335,0.025
'14:05.878',-0.215,0.040
'14:05.881',-0.050,0.015
'14:05.883',0.145,-0.025
'14:05.886',0.380,-0.050
'14:05.889',0.645,-0.020
'14:05.892',0.905,0.090
'14:05.894',1.140,0.205
'14:05.897',1.285,0.345
'14:05.900',1.305,0.460
'14:05.903',1.200,0.570
'14:05.906',0.995,0.645
'14:05.908',0.710,0.655
'14:05.911',0.380,0.595
'14:05.914',0.085,0.445
'14:05.917',-0.145,0.220
'14:05.919',-0.310,0.045
'14:05.922',-0.405,-0.085
'14:05.925',-0.445,-0.115
'14:05.928',-0.450,-0.095
'14:05.931',-0.420,-0.035
'14:05.933',-0.415,0.010
'14:05.936',-0.410,0.035
'14:05.939',-0.430,0.050
'14:05.942',-0.460,0.040
'14:05.944',-0.505,0.040
'14:05.947',-0.515,0.025
'14:05.950',-0.530,0.005
'14:05.953',-0.525,-0.025
'14:05.956',-0.515,-0.050
'14:05.958',-0.540,-0.045
'14:05.961',-0.535,-0.045
'14:05.964',-0.555,-0.050
'14:05.967',-0.560,-0.060
'14:05.969',-0.545,-0.055
'14:05.972',-0.540,-0.030
'14:05.975',-0.555,0.000
'14:05.978',-0.550,0.020
'14:05.981',-0.535,0.005
'14:05.983',-0.535,-0.005
'14:05.986',-0.545,-0.020
'14:05.989',-0.550,-0.030
'14:05.992',-0.555,-0.025
'14:05.994',-0.560,-0.025
'14:05.997',-0.565,-0.040
'14:06.000',-0.545,-0.050
'14:06.003',-0.550,-0.045
'14:06.006',-0.545,-0.025
'14:06.008',-0.575,-0.005
'14:06.011',-0.575,0.015
'14:06.014',-0.575,0.010
'14:06.017',-0.570,-0.005
'14:06.019',-0.565,-0.020
'14:06.022',-0.565,-0.025
'14:06.025',-0.570,-0.025
'14:06.028',-0.575,-0.035
'14:06.031',-0.560,-0.045
'14:06.033',-0.565,-0.045
'14:06.036',-0.555,-0.045
'14:06.039',-0.565,-0.035
'14:06.042',-0.560,-0.015
'14:06.044',-0.560,-0.010
'14:06.047',-0.540,-0.020
'14:06.050',-0.545,-0.035
'14:06.053',-0.545,-0.045
'14:06.056',-0.545,-0.020
'14:06.058',-0.560,-0.010
'14:06.061',-0.545,-0.010
'14:06.064',-0.550,-0.035
'14:06.067',-0.555,-0.045
'14:06.069',-0.555,-0.040
'14:06.072',-0.560,-0.035
'14:06.075',-0.555,-0.025
'14:06.078',-0.550,-0.045
'14:06.081',-0.550,-0.065
'14:06.083',-0.540,-0.095
'14:06.086',-0.545,-0.100
'14:06.089',-0.555,-0.095
'14:06.092',-0.535,-0.085
'14:06.094',-0.550,-0.090
'14:06.097',-0.545,-0.095
'14:06.100',-0.535,-0.105
'14:06.103',-0.545,-0.080
'14:06.106',-0.555,-0.070
'14:06.108',-0.550,-0.070
'14:06.111',-0.540,-0.070
'14:06.114',-0.535,-0.100
'14:06.117',-0.530,-0.100
'14:06.119',-0.530,-0.085
'14:06.122',-0.540,-0.075
'14:06.125',-0.545,-0.085
'14:06.128',-0.535,-0.105
'14:06.131',-0.550,-0.125
'14:06.133',-0.570,-0.120
'14:06.136',-0.565,-0.110
'14:06.139',-0.575,-0.080
'14:06.142',-0.565,-0.080
'14:06.144',-0.550,-0.070
'14:06.147',-0.535,-0.060
'14:06.150',-0.510,-0.045
'14:06.153',-0.510,-0.045
'14:06.156',-0.505,-0.020
'14:06.158',-0.510,-0.025
'14:06.161',-0.500,-0.025
'14:06.164',-0.495,-0.035
'14:06.167',-0.480,-0.030
'14:06.169',-0.470,0.005
'14:06.172',-0.465,0.020
'14:06.175',-0.460,0.035
'14:06.178',-0.455,0.045
'14:06.181',-0.455,0.060
'14:06.183',-0.460,0.070
'14:06.186',-0.470,0.080
'14:06.189',-0.475,0.085
'14:06.192',-0.475,0.065
'14:06.194',-0.465,0.060
'14:06.197',-0.485,0.060
'14:06.200',-0.480,0.070
'14:06.203',-0.485,0.085
'14:06.206',-0.490,0.095
'14:06.208',-0.495,0.080
'14:06.211',-0.490,0.070
'14:06.214',-0.485,0.065
'14:06.217',-0.480,0.080
'14:06.219',-0.490,0.090
'14:06.222',-0.485,0.095
'14:06.225',-0.475,0.080
'14:06.228',-0.485,0.050
'14:06.231',-0.480,0.025
'14:06.233',-0.495,0.025
'14:06.236',-0.505,0.035
'14:06.239',-0.505,0.045
'14:06.242',-0.495,0.050
'14:06.244',-0.475,0.045
'14:06.247',-0.455,0.060
'14:06.250',-0.450,0.060
'14:06.253',-0.450,0.080
'14:06.256',-0.465,0.070
'14:06.258',-0.480,0.050
'14:06.261',-0.485,0.020
'14:06.264',-0.505,0.015
'14:06.267',-0.515,0.015
'14:06.269',-0.525,0.035
'14:06.272',-0.525,0.065
'14:06.275',-0.515,0.060
'14:06.278',-0.530,0.035
'14:06.281',-0.540,0.025
'14:06.283',-0.545,0.010
'14:06.286',-0.550,0.000
'14:06.289',-0.550,0.010
'14:06.292',-0.550,0.000
'14:06.294',-0.550,-0.010
'14:06.297',-0.540,-0.015
'14:06.300',-0.540,0.005
'14:06.303',-0.530,0.040
'14:06.306',-0.525,0.080
'14:06.308',-0.520,0.110
'14:06.311',-0.505,0.100
'14:06.314',-0.480,0.105
'14:06.317',-0.470,0.110
'14:06.319',-0.450,0.120
'14:06.322',-0.435,0.150
'14:06.325',-0.450,0.155
'14:06.328',-0.445,0.135
'14:06.331',-0.455,0.120
'14:06.333',-0.465,0.090
'14:06.336',-0.465,0.090
'14:06.339',-0.460,0.105
'14:06.342',-0.450,0.105
'14:06.344',-0.450,0.080
'14:06.347',-0.440,0.050
'14:06.350',-0.395,0.030
'14:06.353',-0.360,0.020
'14:06.356',-0.285,0.025
'14:06.358',-0.185,0.030
'14:06.361',-0.055,-0.005
'14:06.364',0.080,-0.050
'14:06.367',0.220,-0.095
'14:06.369',0.395,-0.090
'14:06.372',0.560,-0.045
'14:06.375',0.750,0.040
'14:06.378',0.930,0.150
'14:06.381',1.050,0.300
'14:06.383',1.095,0.470
'14:06.386',1.015,0.660
'14:06.389',0.825,0.805
'14:06.392',0.575,0.870
'14:06.394',0.315,0.830
'14:06.397',0.025,0.660
'14:06.400',-0.205,0.435
'14:06.403',-0.375,0.225
'14:06.406',-0.465,0.090
'14:06.408',-0.485,-0.005
'14:06.411',-0.470,-0.020
'14:06.414',-0.420,0.000
'14:06.417',-0.395,0.020
'14:06.419',-0.405,0.040
'14:06.422',-0.420,0.060
'14:06.425',-0.460,0.055
'14:06.428',-0.485,0.045
'14:06.431',-0.540,0.000
'14:06.433',-0.545,-0.030
'14:06.436',-0.550,-0.030
'14:06.439',-0.545,0.005
'14:06.442',-0.550,0.025
'14:06.444',-0.555,0.040
'14:06.447',-0.550,0.035
'14:06.450',-0.540,0.010
'14:06.453',-0.540,0.000
'14:06.456',-0.540,0.020
'14:06.458',-0.535,0.035
'14:06.461',-0.540,0.045
'14:06.464',-0.555,0.055
'14:06.467',-0.565,0.030
'14:06.469',-0.565,0.035
'14:06.472',-0.570,0.015
'14:06.475',-0.570,0.015
'14:06.478',-0.565,0.025
'14:06.481',-0.535,0.020
'14:06.483',-0.530,-0.015
'14:06.486',-0.525,-0.005
'14:06.489',-0.555,-0.005
'14:06.492',-0.560,0.005
'14:06.494',-0.555,0.015
'14:06.497',-0.555,0.015
'14:06.500',-0.565,0.005
'14:06.503',-0.565,-0.005
'14:06.506',-0.575,0.015
'14:06.508',-0.585,0.050
'14:06.511',-0.575,0.070
'14:06.514',-0.580,0.060
'14:06.517',-0.560,0.035
'14:06.519',-0.550,0.000
'14:06.522',-0.555,-0.015
'14:06.525',-0.560,0.000
'14:06.528',-0.555,0.010
'14:06.531',-0.555,0.005
'14:06.533',-0.545,-0.015
'14:06.536',-0.545,-0.030
'14:06.539',-0.555,-0.025
'14:06.542',-0.560,-0.030
'14:06.544',-0.555,-0.020
'14:06.547',-0.540,-0.005
'14:06.550',-0.535,-0.025
'14:06.553',-0.530,-0.025
'14:06.556',-0.520,-0.025
'14:06.558',-0.535,-0.015
'14:06.561',-0.535,-0.010
'14:06.564',-0.540,-0.030
'14:06.567',-0.545,-0.070
'14:06.569',-0.555,-0.080
'14:06.572',-0.560,-0.075
'14:06.575',-0.550,-0.050
'14:06.578',-0.550,-0.040
'14:06.581',-0.540,-0.045
'14:06.583',-0.530,-0.055
'14:06.586',-0.530,-0.085
'14:06.589',-0.525,-0.095
'14:06.592',-0.545,-0.105
'14:06.594',-0.545,-0.095
'14:06.597',-0.565,-0.090
'14:06.600',-0.565,-0.090
'14:06.603',-0.565,-0.085
'14:06.606',-0.565,-0.085
'14:06.608',-0.570,-0.070
'14:06.611',-0.560,-0.055
'14:06.614',-0.550,-0.040
'14:06.617',-0.540,-0.050
'14:06.619',-0.545,-0.065
'14:06.622',-0.535,-0.065
'14:06.625',-0.535,-0.065
'14:06.628',-0.535,-0.035
'14:06.631',-0.530,-0.035
'14:06.633',-0.520,-0.035
'14:06.636',-0.505,-0.040
'14:06.639',-0.490,-0.045
'14:06.642',-0.470,-0.035
'14:06.644',-0.450,-0.005
'14:06.647',-0.450,0.035
'14:06.650',-0.410,0.025
'14:06.653',-0.405,0.045
'14:06.656',-0.395,0.035
'14:06.658',-0.405,0.040
'14:06.661',-0.420,0.065
'14:06.664',-0.435,0.100
'14:06.667',-0.435,0.125
'14:06.669',-0.420,0.120
'14:06.672',-0.415,0.115
'14:06.675',-0.410,0.105
'14:06.678',-0.405,0.125
'14:06.681',-0.415,0.150
'14:06.683',-0.395,0.145
'14:06.686',-0.405,0.145
'14:06.689',-0.400,0.120
'14:06.692',-0.415,0.100
'14:06.694',-0.410,0.085
'14:06.697',-0.430,0.085
'14:06.700',-0.430,0.095
'14:06.703',-0.425,0.095
'14:06.706',-0.420,0.095
'14:06.708',-0.405,0.095
'14:06.711',-0.405,0.115
'14:06.714',-0.405,0.135
'14:06.717',-0.400,0.145
'14:06.719',-0.390,0.130
'14:06.722',-0.390,0.115
'14:06.725',-0.400,0.095
'14:06.728',-0.400,0.070
'14:06.731',-0.420,0.075
'14:06.733',-0.415,0.095
'14:06.736',-0.420,0.100
'14:06.739',-0.415,0.100
'14:06.742',-0.415,0.100
'14:06.744',-0.415,0.100
'14:06.747',-0.410,0.110
'14:06.750',-0.410,0.125
'14:06.753',-0.420,0.125
'14:06.756',-0.405,0.105
'14:06.758',-0.395,0.095
'14:06.761',-0.410,0.085
'14:06.764',-0.415,0.105
'14:06.767',-0.425,0.110
'14:06.769',-0.430,0.115
'14:06.772',-0.425,0.115
'14:06.775',-0.405,0.105
'14:06.778',-0.405,0.095
'14:06.781',-0.405,0.105
'14:06.783',-0.405,0.110
'14:06.786',-0.415,0.105
'14:06.789',-0.400,0.100
'14:06.792',-0.405,0.070
'14:06.794',-0.415,0.050
'14:06.797',-0.435,0.050
'14:06.800',-0.460,0.055
'14:06.803',-0.460,0.075
'14:06.806',-0.470,0.080
'14:06.808',-0.475,0.065
'14:06.811',-0.475,0.040
'14:06.814',-0.475,0.050
'14:06.817',-0.495,0.060
'14:06.819',-0.495,0.060
'14:06.822',-0.490,0.065
'14:06.825',-0.505,0.050
'14:06.828',-0.485,0.030
'14:06.831',-0.495,0.035
'14:06.833',-0.480,0.055
'14:06.836',-0.480,0.080
'14:06.839',-0.455,0.115
'14:06.842',-0.440,0.130
'14:06.844',-0.425,0.145
'14:06.847',-0.415,0.170
'14:06.850',-0.405,0.190
'14:06.853',-0.400,0.215
'14:06.856',-0.390,0.210
'14:06.858',-0.385,0.180
'14:06.861',-0.370,0.140
'14:06.864',-0.380,0.115
'14:06.867',-0.390,0.115
'14:06.869',-0.405,0.150
'14:06.872',-0.425,0.160
'14:06.875',-0.425,0.170
'14:06.878',-0.430,0.135
'14:06.881',-0.435,0.105
'14:06.883',-0.415,0.090
'14:06.886',-0.390,0.095
'14:06.889',-0.335,0.105
'14:06.892',-0.270,0.085
'14:06.894',-0.155,0.060
'14:06.897',-0.025,0.030
'14:06.900',0.135,0.005
'14:06.903',0.350,0.015
'14:06.906',0.570,0.075
'14:06.908',0.820,0.170
'14:06.911',1.035,0.290
'14:06.914',1.185,0.430
'14:06.917',1.250,0.610
'14:06.919',1.190,0.755
'14:06.922',1.035,0.880
'14:06.925',0.800,0.935
'14:06.928',0.525,0.865
'14:06.931',0.260,0.695
'14:06.933',0.020,0.485
'14:06.936',-0.165,0.280
'14:06.939',-0.290,0.135
'14:06.942',-0.355,0.040
'14:06.944',-0.365,0.000
'14:06.947',-0.355,0.005
'14:06.950',-0.305,0.030
'14:06.953',-0.305,0.065
'14:06.956',-0.305,0.115
'14:06.958',-0.330,0.115
'14:06.961',-0.360,0.095
'14:06.964',-0.400,0.055
'14:06.967',-0.425,0.030
'14:06.969',-0.445,0.020
'14:06.972',-0.465,0.040
'14:06.975',-0.465,0.070
'14:06.978',-0.460,0.090
'14:06.981',-0.445,0.070
'14:06.983',-0.435,0.065
'14:06.986',-0.435,0.060
'14:06.989',-0.445,0.060
'14:06.992',-0.455,0.055
'14:06.994',-0.455,0.040
'14:06.997',-0.470,0.000
'14:07.000',-0.475,-0.015
'14:07.003',-0.470,0.000
'14:07.006',-0.470,0.025
'14:07.008',-0.465,0.050
'14:07.011',-0.465,0.070
'14:07.014',-0.440,0.070
'14:07.017',-0.445,0.050
'14:07.019',-0.450,0.055
'14:07.022',-0.450,0.050
'14:07.025',-0.470,0.055
'14:07.028',-0.465,0.045
'14:07.031',-0.460,0.045
'14:07.033',-0.455,0.020
'14:07.036',-0.470,0.025
'14:07.039',-0.460,0.035
'14:07.042',-0.455,0.060
'14:07.044',-0.455,0.060
'14:07.047',-0.455,0.045
'14:07.050',-0.430,0.030
'14:07.053',-0.435,0.035
'14:07.056',-0.445,0.040
'14:07.058',-0.455,0.055
'14:07.061',-0.455,0.070
'14:07.064',-0.455,0.050
'14:07.067',-0.455,0.025
'14:07.069',-0.450,0.005
'14:07.072',-0.450,-0.005
'14:07.075',-0.450,-0.005
'14:07.078',-0.450,0.010
'14:07.081',-0.445,0.025
'14:07.083',-0.435,0.020
'14:07.086',-0.435,0.005
'14:07.089',-0.425,0.005
'14:07.092',-0.430,0.020
'14:07.094',-0.430,0.005
'14:07.097',-0.435,0.020
'14:07.100',-0.440,-0.005
'14:07.103',-0.435,-0.030
'14:07.106',-0.440,-0.035
'14:07.108',-0.440,-0.025
'14:07.111',-0.430,-0.015
'14:07.114',-0.425,-0.005
'14:07.117',-0.445,-0.005
'14:07.119',-0.445,-0.025
'14:07.122',-0.440,-0.050
'14:07.125',-0.430,-0.045
'14:07.128',-0.450,-0.040
'14:07.131',-0.470,-0.050
'14:07.133',-0.465,-0.040
'14:07.136',-0.450,-0.055
'14:07.139',-0.460,-0.060
'14:07.142',-0.465,-0.055
'14:07.144',-0.445,-0.040
'14:07.147',-0.445,-0.010
'14:07.150',-0.450,-0.010
'14:07.153',-0.455,-0.015
'14:07.156',-0.445,-0.040
'14:07.158',-0.460,-0.050
'14:07.161',-0.455,-0.040
'14:07.164',-0.460,-0.030
'14:07.167',-0.465,-0.040
'14:07.169',-0.445,-0.025
'14:07.172',-0.410,-0.030
'14:07.175',-0.385,-0.015
'14:07.178',-0.375,0.005
'14:07.181',-0.370,0.035
'14:07.183',-0.345,0.045
'14:07.186',-0.330,0.035
'14:07.189',-0.315,0.040
'14:07.192',-0.310,0.025
'14:07.194',-0.315,0.035
'14:07.197',-0.325,0.070
'14:07.200',-0.325,0.090
'14:07.203',-0.315,0.100
'14:07.206',-0.305,0.090
'14:07.208',-0.310,0.085
'14:07.211',-0.295,0.105
'14:07.214',-0.295,0.130
'14:07.217',-0.280,0.145
'14:07.219',-0.275,0.155
'14:07.222',-0.290,0.155
'14:07.225',-0.285,0.130
'14:07.228',-0.280,0.120
'14:07.231',-0.285,0.115
'14:07.233',-0.300,0.110
'14:07.236',-0.315,0.110
'14:07.239',-0.300,0.095
'14:07.242',-0.295,0.090
'14:07.244',-0.280,0.085
'14:07.247',-0.280,0.105
'14:07.250',-0.270,0.120
'14:07.253',-0.280,0.140
'14:07.256',-0.275,0.140
'14:07.258',-0.275,0.120
'14:07.261',-0.285,0.110
'14:07.264',-0.290,0.090
'14:07.267',-0.290,0.105
'14:07.269',-0.290,0.110
'14:07.272',-0.285,0.125
'14:07.275',-0.280,0.120
'14:07.278',-0.265,0.090
'14:07.281',-0.265,0.075
'14:07.283',-0.280,0.075
'14:07.286',-0.290,0.100
'14:07.289',-0.305,0.110
'14:07.292',-0.325,0.085
'14:07.294',-0.335,0.070
'14:07.297',-0.345,0.055
'14:07.300',-0.360,0.040
'14:07.303',-0.370,0.055
'14:07.306',-0.370,0.065
'14:07.308',-0.360,0.075
'14:07.311',-0.340,0.065
'14:07.314',-0.315,0.060
'14:07.317',-0.310,0.075
'14:07.319',-0.285,0.100
'14:07.322',-0.285,0.120
'14:07.325',-0.270,0.125
'14:07.328',-0.265,0.130
'14:07.331',-0.280,0.125
'14:07.333',-0.295,0.155
'14:07.336',-0.280,0.160
'14:07.339',-0.270,0.190
'14:07.342',-0.270,0.165
'14:07.344',-0.255,0.145
'14:07.347',-0.255,0.115
'14:07.350',-0.245,0.100
'14:07.353',-0.240,0.105
'14:07.356',-0.245,0.130
'14:07.358',-0.250,0.135
'14:07.361',-0.235,0.125
'14:07.364',-0.235,0.075
'14:07.367',-0.225,0.050
'14:07.369',-0.195,0.055
'14:07.372',-0.155,0.060
'14:07.375',-0.055,0.065
'14:07.378',0.060,0.050
'14:07.381',0.205,0.035
'14:07.383',0.375,0.000
'14:07.386',0.545,-0.020
'14:07.389',0.720,-0.010
'14:07.392',0.920,0.050
'14:07.394',1.120,0.140
'14:07.397',1.265,0.270
'14:07.400',1.335,0.440
'14:07.403',1.255,0.640
'14:07.406',1.090,0.795
'14:07.408',0.845,0.875
'14:07.411',0.560,0.825
'14:07.414',0.260,0.650
'14:07.417',0.015,0.425
'14:07.419',-0.150,0.215
'14:07.422',-0.245,0.060
'14:07.425',-0.250,-0.025
'14:07.428',-0.235,-0.035
'14:07.431',-0.210,-0.020
'14:07.433',-0.205,0.025
'14:07.436',-0.220,0.055
'14:07.439',-0.245,0.075
'14:07.442',-0.275,0.060
'14:07.444',-0.295,0.055
'14:07.447',-0.315,0.050
'14:07.450',-0.315,0.055
'14:07.453',-0.330,0.075
'14:07.456',-0.330,0.060
'14:07.458',-0.330,0.030
'14:07.461',-0.335,0.000
'14:07.464',-0.340,-0.015
'14:07.467',-0.355,0.005
'14:07.469',-0.355,0.010
'14:07.472',-0.355,0.015
'14:07.475',-0.340,0.015
'14:07.478',-0.330,0.005
'14:07.481',-0.325,0.025
'14:07.483',-0.335,0.045
'14:07.486',-0.325,0.055
'14:07.489',-0.335,0.045
'14:07.492',-0.335,0.025
'14:07.494',-0.335,-0.005
'14:07.497',-0.350,-0.005
'14:07.500',-0.360,0.010
'14:07.503',-0.365,0.025
'14:07.506',-0.365,0.035
'14:07.508',-0.355,0.030
'14:07.511',-0.355,0.025
'14:07.514',-0.345,0.045
'14:07.517',-0.350,0.045
'14:07.519',-0.360,0.055
'14:07.522',-0.360,0.035
'14:07.525',-0.350,0.010
'14:07.528',-0.345,-0.025
'14:07.531',-0.365,-0.035
'14:07.533',-0.375,-0.035
'14:07.536',-0.385,-0.030
'14:07.539',-0.385,-0.025
'14:07.542',-0.375,-0.035
'14:07.544',-0.355,-0.030
'14:07.547',-0.335,-0.005
'14:07.550',-0.340,0.020
'14:07.553',-0.345,0.015
'14:07.556',-0.325,0.005
'14:07.558',-0.340,-0.025
'14:07.561',-0.345,-0.045
'14:07.564',-0.365,-0.040
'14:07.567',-0.375,-0.040
'14:07.569',-0.375,-0.030
'14:07.572',-0.380,-0.040
'14:07.575',-0.370,-0.055
'14:07.578',-0.355,-0.055
'14:07.581',-0.360,-0.035
'14:07.583',-0.345,-0.025
'14:07.586',-0.360,-0.030
'14:07.589',-0.345,-0.055
'14:07.592',-0.360,-0.075
'14:07.594',-0.360,-0.095
'14:07.597',-0.350,-0.095
'14:07.600',-0.380,-0.085
'14:07.603',-0.370,-0.080
'14:07.606',-0.375,-0.095
'14:07.608',-0.370,-0.100
'14:07.611',-0.360,-0.105
'14:07.614',-0.355,-0.075
'14:07.617',-0.355,-0.060
'14:07.619',-0.375,-0.065
'14:07.622',-0.350,-0.065
'14:07.625',-0.360,-0.085
'14:07.628',-0.350,-0.085
'14:07.631',-0.360,-0.065
'14:07.633',-0.365,-0.055
'14:07.636',-0.330,-0.055
'14:07.639',-0.310,-0.055
'14:07.642',-0.275,-0.060
'14:07.644',-0.260,-0.050
'14:07.647',-0.235,-0.010
'14:07.650',-0.220,0.015
'14:07.653',-0.210,0.035
'14:07.656',-0.200,0.040
'14:07.658',-0.195,0.030
'14:07.661',-0.195,0.060
'14:07.664',-0.195,0.070
'14:07.667',-0.200,0.080
'14:07.669',-0.210,0.075
'14:07.672',-0.205,0.070
'14:07.675',-0.205,0.060
'14:07.678',-0.195,0.085
'14:07.681',-0.195,0.115
'14:07.683',-0.185,0.135
'14:07.686',-0.185,0.140
'14:07.689',-0.185,0.110
'14:07.692',-0.185,0.080
'14:07.694',-0.200,0.065
'14:07.697',-0.210,0.070
'14:07.700',-0.230,0.080
'14:07.703',-0.225,0.065
'14:07.706',-0.220,0.060
'14:07.708',-0.215,0.065
'14:07.711',-0.200,0.075
'14:07.714',-0.185,0.095
'14:07.717',-0.180,0.115
'14:07.719',-0.180,0.110
'14:07.722',-0.190,0.100
'14:07.725',-0.205,0.090
'14:07.728',-0.220,0.085
'14:07.731',-0.235,0.090
'14:07.733',-0.235,0.095
'14:07.736',-0.210,0.085
'14:07.739',-0.200,0.065
'14:07.742',-0.205,0.050
'14:07.744',-0.210,0.075
'14:07.747',-0.220,0.075
'14:07.750',-0.215,0.090
'14:07.753',-0.230,0.075
'14:07.756',-0.240,0.045
'14:07.758',-0.250,0.030
'14:07.761',-0.255,0.010
'14:07.764',-0.270,0.010
'14:07.767',-0.280,0.010
'14:07.769',-0.275,0.005
'14:07.772',-0.270,0.010
'14:07.775',-0.265,0.025
'14:07.778',-0.255,0.045
'14:07.781',-0.250,0.090
'14:07.783',-0.230,0.100
'14:07.786',-0.215,0.110
'14:07.789',-0.195,0.125
'14:07.792',-0.185,0.140
'14:07.794',-0.195,0.150
'14:07.797',-0.195,0.155
'14:07.800',-0.190,0.150
'14:07.803',-0.180,0.125
'14:07.806',-0.175,0.090
'14:07.808',-0.160,0.070
'14:07.811',-0.160,0.070
'14:07.814',-0.145,0.105
'14:07.817',-0.160,0.125
'14:07.819',-0.170,0.130
'14:07.822',-0.175,0.100
'14:07.825',-0.175,0.070
'14:07.828',-0.190,0.045
'14:07.831',-0.180,0.025
'14:07.833',-0.130,0.015
'14:07.836',-0.045,-0.005
'14:07.839',0.075,-0.035
'14:07.842',0.235,-0.050
'14:07.844',0.390,-0.065
'14:07.847',0.585,-0.050
'14:07.850',0.785,-0.010
'14:07.853',1.015,0.050
'14:07.856',1.220,0.165
'14:07.858',1.350,0.340
'14:07.861',1.365,0.535
'14:07.864',1.260,0.715
'14:07.867',1.080,0.825
'14:07.869',0.820,0.860
'14:07.872',0.540,0.760
'14:07.875',0.300,0.585
'14:07.878',0.100,0.385
'14:07.881',-0.035,0.210
'14:07.883',-0.110,0.060
'14:07.886',-0.130,-0.005
'14:07.889',-0.135,-0.060
'14:07.892',-0.110,-0.055
'14:07.894',-0.110,-0.030
'14:07.897',-0.125,0.005
'14:07.900',-0.140,0.040
'14:07.903',-0.170,0.045
'14:07.906',-0.210,0.040
'14:07.908',-0.215,0.010
'14:07.911',-0.235,0.000
'14:07.914',-0.245,0.025
'14:07.917',-0.250,0.035
'14:07.919',-0.265,0.025
'14:07.922',-0.260,0.020
'14:07.925',-0.245,-0.020
'14:07.928',-0.245,-0.030
'14:07.931',-0.240,-0.015
'14:07.933',-0.265,-0.010
'14:07.936',-0.280,0.010
'14:07.939',-0.280,0.025
'14:07.942',-0.270,0.015
'14:07.944',-0.265,0.005
'14:07.947',-0.255,0.005
'14:07.950',-0.245,0.000
'14:07.953',-0.250,0.005
'14:07.956',-0.250,0.005
'14:07.958',-0.245,-0.020
'14:07.961',-0.260,-0.040
'14:07.964',-0.265,-0.035
'14:07.967',-0.285,-0.035
'14:07.969',-0.300,-0.010
'14:07.972',-0.285,0.010
'14:07.975',-0.275,0.000
'14:07.978',-0.275,0.000
'14:07.981',-0.270,-0.005
'14:07.983',-0.255,-0.005
'14:07.986',-0.270,0.010
'14:07.989',-0.270,0.015
'14:07.992',-0.270,-0.015
'14:07.994',-0.280,-0.040
'14:07.997',-0.285,-0.060
'14:08.000',-0.295,-0.060
'14:08.003',-0.305,-0.045
'14:08.006',-0.290,-0.025
'14:08.008',-0.285,-0.025
'14:08.011',-0.260,-0.010
'14:08.014',-0.260,-0.025
'14:08.017',-0.255,-0.015
'14:08.019',-0.265,-0.020
'14:08.022',-0.265,-0.010
'14:08.025',-0.265,-0.030
'14:08.028',-0.290,-0.040
'14:08.031',-0.290,-0.065
'14:08.033',-0.285,-0.080
'14:08.036',-0.280,-0.065
'14:08.039',-0.285,-0.045
'14:08.042',-0.275,-0.035
'14:08.044',-0.265,-0.050
'14:08.047',-0.260,-0.065
'14:08.050',-0.260,-0.070
'14:08.053',-0.270,-0.070
'14:08.056',-0.280,-0.060
'14:08.058',-0.275,-0.085
'14:08.061',-0.275,-0.100
'14:08.064',-0.285,-0.110
'14:08.067',-0.295,-0.135
'14:08.069',-0.310,-0.115
'14:08.072',-0.290,-0.100
'14:08.075',-0.290,-0.080
'14:08.078',-0.285,-0.085
'14:08.081',-0.280,-0.080
'14:08.083',-0.275,-0.065
'14:08.086',-0.275,-0.065
'14:08.089',-0.285,-0.045
'14:08.092',-0.295,-0.085
'14:08.094',-0.300,-0.095
'14:08.097',-0.305,-0.135
'14:08.100',-0.300,-0.125
'14:08.103',-0.285,-0.110
'14:08.106',-0.270,-0.080
'14:08.108',-0.255,-0.060
'14:08.111',-0.215,-0.060
'14:08.114',-0.215,-0.060
'14:08.117',-0.205,-0.070
'14:08.119',-0.190,-0.060
'14:08.122',-0.175,-0.035
'14:08.125',-0.140,-0.015
'14:08.128',-0.125,-0.010
'14:08.131',-0.105,-0.010
'14:08.133',-0.110,-0.015
'14:08.136',-0.115,0.000
'14:08.139',-0.110,0.035
'14:08.142',-0.105,0.045
'14:08.144',-0.095,0.045
'14:08.147',-0.105,0.040
'14:08.150',-0.100,0.045
'14:08.153',-0.105,0.060
'14:08.156',-0.095,0.070
'14:08.158',-0.105,0.080
'14:08.161',-0.100,0.055
'14:08.164',-0.110,0.025
'14:08.167',-0.110,0.010
'14:08.169',-0.115,0.035
'14:08.172',-0.135,0.045
'14:08.175',-0.120,0.065
'14:08.178',-0.110,0.060
'14:08.181',-0.100,0.045
'14:08.183',-0.080,0.040
'14:08.186',-0.095,0.050
'14:08.189',-0.110,0.065
'14:08.192',-0.115,0.060
'14:08.194',-0.130,0.050
'14:08.197',-0.125,0.035
'14:08.200',-0.125,0.020
'14:08.203',-0.115,0.030
'14:08.206',-0.115,0.060
'14:08.208',-0.115,0.090
'14:08.211',-0.115,0.095
'14:08.214',-0.120,0.065
'14:08.217',-0.115,0.040
'14:08.219',-0.125,0.025
'14:08.222',-0.115,0.045
'14:08.225',-0.105,0.055
'14:08.228',-0.110,0.065
'14:08.231',-0.110,0.030
'14:08.233',-0.135,0.010
'14:08.236',-0.130,0.015
'14:08.239',-0.150,0.015
'14:08.242',-0.130,0.040
'14:08.244',-0.110,0.055
'14:08.247',-0.105,0.055
'14:08.250',-0.085,0.055
'14:08.253',-0.090,0.070
'14:08.256',-0.100,0.075
'14:08.258',-0.110,0.080
'14:08.261',-0.110,0.060
'14:08.264',-0.115,0.035
'14:08.267',-0.120,0.005
'14:08.269',-0.125,0.020
'14:08.272',-0.115,0.040
'14:08.275',-0.125,0.065
'14:08.278',-0.110,0.070
'14:08.281',-0.105,0.055
'14:08.283',-0.090,0.050
'14:08.286',-0.100,0.050
'14:08.289',-0.110,0.060
'14:08.292',-0.120,0.040
'14:08.294',-0.125,0.020
'14:08.297',-0.150,0.000
'14:08.300',-0.165,-0.015
'14:08.303',-0.175,-0.015
'14:08.306',-0.180,0.000
'14:08.308',-0.180,0.010
'14:08.311',-0.190,-0.010
'14:08.314',-0.190,-0.010
'14:08.317',-0.185,0.010
'14:08.319',-0.210,0.010
'14:08.322',-0.205,0.010
'14:08.325',-0.195,0.010
'14:08.328',-0.185,0.000
'14:08.331',-0.165,0.000
'14:08.333',-0.155,0.025
'14:08.336',-0.135,0.065
'14:08.339',-0.135,0.105
'14:08.342',-0.140,0.130
'14:08.344',-0.125,0.140
'14:08.347',-0.120,0.150
'14:08.350',-0.115,0.135
'14:08.353',-0.110,0.135
'14:08.356',-0.100,0.110
'14:08.358',-0.105,0.070
'14:08.361',-0.105,0.040
'14:08.364',-0.105,0.010
'14:08.367',-0.120,0.020
'14:08.369',-0.145,0.025
'14:08.372',-0.160,0.030
'14:08.375',-0.170,0.015
'14:08.378',-0.145,0.020
'14:08.381',-0.105,0.020
'14:08.383',-0.015,0.025
'14:08.386',0.100,0.015
'14:08.389',0.275,-0.010
'14:08.392',0.485,-0.055
'14:08.394',0.735,-0.070
'14:08.397',1.000,0.000
'14:08.400',1.255,0.135
'14:08.403',1.450,0.320
'14:08.406',1.545,0.525
'14:08.408',1.495,0.675
'14:08.411',1.310,0.760
'14:08.414',1.040,0.785
'14:08.417',0.730,0.700
'14:08.419',0.415,0.495
'14:08.422',0.175,0.245
'14:08.425',-0.010,0.030
'14:08.428',-0.100,-0.100
'14:08.431',-0.115,-0.135
'14:08.433',-0.090,-0.085
'14:08.436',-0.065,-0.020
'14:08.439',-0.050,0.005
'14:08.442',-0.040,0.035
'14:08.444',-0.060,0.035
'14:08.447',-0.090,0.025
'14:08.450',-0.100,0.025
'14:08.453',-0.120,-0.005
'14:08.456',-0.140,-0.030
'14:08.458',-0.155,-0.035
'14:08.461',-0.150,-0.050
'14:08.464',-0.155,-0.040
'14:08.467',-0.160,-0.025
'14:08.469',-0.150,-0.025
'14:08.472',-0.160,-0.045
'14:08.475',-0.160,-0.020
'14:08.478',-0.145,-0.020
'14:08.481',-0.150,-0.005
'14:08.483',-0.155,-0.010
'14:08.486',-0.165,-0.030
'14:08.489',-0.175,-0.045
'14:08.492',-0.175,-0.050
'14:08.494',-0.180,-0.035
'14:08.497',-0.180,-0.015
'14:08.500',-0.185,0.015
'14:08.503',-0.175,-0.010
'14:08.506',-0.170,-0.010
'14:08.508',-0.175,0.000
'14:08.511',-0.170,-0.005
'14:08.514',-0.155,-0.005
'14:08.517',-0.155,-0.020
'14:08.519',-0.150,-0.045
'14:08.522',-0.135,-0.055
'14:08.525',-0.145,-0.045
'14:08.528',-0.150,-0.030
'14:08.531',-0.160,-0.035
'14:08.533',-0.165,-0.050
'14:08.536',-0.155,-0.060
'14:08.539',-0.155,-0.050
'14:08.542',-0.150,-0.040
'14:08.544',-0.150,-0.010
'14:08.547',-0.140,-0.030
'14:08.550',-0.125,-0.050
'14:08.553',-0.125,-0.070
'14:08.556',-0.125,-0.075
'14:08.558',-0.125,-0.075
'14:08.561',-0.125,-0.060
'14:08.564',-0.120,-0.075
'14:08.567',-0.125,-0.080
'14:08.569',-0.140,-0.080
'14:08.572',-0.145,-0.070
'14:08.575',-0.155,-0.055
'14:08.578',-0.155,-0.065
'14:08.581',-0.140,-0.085
'14:08.583',-0.125,-0.100
'14:08.586',-0.125,-0.095
'14:08.589',-0.130,-0.070
'14:08.592',-0.145,-0.070
'14:08.594',-0.160,-0.095
'14:08.597',-0.170,-0.130
'14:08.600',-0.175,-0.140
'14:08.603',-0.180,-0.135
'14:08.606',-0.190,-0.110
'14:08.608',-0.175,-0.085
'14:08.611',-0.180,-0.095
'14:08.614',-0.165,-0.095
'14:08.617',-0.170,-0.105
'14:08.619',-0.175,-0.105
'14:08.622',-0.175,-0.095
'14:08.625',-0.185,-0.125
'14:08.628',-0.190,-0.135
'14:08.631',-0.190,-0.145
'14:08.633',-0.185,-0.125
'14:08.636',-0.185,-0.110
'14:08.639',-0.170,-0.085
'14:08.642',-0.135,-0.080
'14:08.644',-0.100,-0.060
'14:08.647',-0.095,-0.040
'14:08.650',-0.075,-0.005
'14:08.653',-0.070,0.015
'14:08.656',-0.040,0.020
'14:08.658',-0.035,0.015
'14:08.661',-0.010,-0.015
'14:08.664',-0.005,-0.035
'14:08.667',-0.020,-0.020
'14:08.669',-0.020,-0.005
'14:08.672',-0.025,0.015
'14:08.675',-0.020,0.030
'14:08.678',-0.005,0.025
'14:08.681',0.010,0.040
'14:08.683',0.005,0.055
'14:08.686',0.010,0.055
'14:08.689',0.005,0.060
'14:08.692',0.000,0.030
'14:08.694',-0.005,0.020
'14:08.697',-0.005,0.005
'14:08.700',-0.020,0.020
'14:08.703',-0.030,0.045
'14:08.706',-0.020,0.045
'14:08.708',-0.025,0.040
'14:08.711',-0.005,0.035
'14:08.714',-0.015,0.030
'14:08.717',-0.005,0.050
'14:08.719',0.000,0.060
'14:08.722',-0.005,0.060
'14:08.725',-0.005,0.040
'14:08.728',-0.010,0.015
'14:08.731',-0.025,0.005
'14:08.733',-0.030,0.015
'14:08.736',-0.030,0.035
'14:08.739',-0.030,0.030
'14:08.742',-0.015,0.025
'14:08.744',-0.015,0.015
'14:08.747',-0.010,0.020
'14:08.750',0.005,0.040
'14:08.753',0.000,0.055
'14:08.756',-0.005,0.065
'14:08.758',-0.010,0.035
'14:08.761',0.000,0.005
'14:08.764',-0.020,0.000
'14:08.767',-0.020,0.015
'14:08.769',-0.035,0.035
'14:08.772',-0.010,0.040
'14:08.775',-0.015,0.035
'14:08.778',0.005,0.020
'14:08.781',0.005,0.020
'14:08.783',0.010,0.045
'14:08.786',0.000,0.050
'14:08.789',0.005,0.050
'14:08.792',0.010,0.025
'14:08.794',0.005,0.005
'14:08.797',0.005,0.005
'14:08.800',0.005,0.010
'14:08.803',0.000,0.035
'14:08.806',0.000,0.030
'14:08.808',-0.005,0.035
'14:08.811',0.000,0.025
'14:08.814',0.015,0.040
'14:08.817',0.010,0.050
'14:08.819',0.015,0.060
'14:08.822',0.015,0.060
'14:08.825',0.005,0.015
'14:08.828',0.005,-0.005
'14:08.831',-0.010,-0.010
'14:08.833',-0.005,0.005
'14:08.836',-0.025,0.020
'14:08.839',-0.020,0.025
'14:08.842',-0.025,0.025
'14:08.844',-0.035,0.005
'14:08.847',-0.030,-0.005
'14:08.850',-0.045,-0.010
'14:08.853',-0.060,-0.015
'14:08.856',-0.060,-0.005
'14:08.858',-0.065,-0.025
'14:08.861',-0.065,-0.040
'14:08.864',-0.065,-0.030
'14:08.867',-0.065,-0.010
'14:08.869',-0.055,0.020
'14:08.872',-0.040,0.040
'14:08.875',-0.025,0.030
'14:08.878',-0.005,0.055
'14:08.881',0.020,0.070
'14:08.883',0.020,0.100
'14:08.886',0.015,0.130
'14:08.889',0.015,0.155
'14:08.892',0.010,0.135
'14:08.894',0.015,0.090
'14:08.897',0.020,0.045
'14:08.900',0.015,0.035
'14:08.903',0.025,0.035
'14:08.906',0.020,0.045
'14:08.908',0.020,0.030
'14:08.911',0.025,0.030
'14:08.914',-0.005,0.015
'14:08.917',-0.005,-0.005
'14:08.919',-0.020,0.000
'14:08.922',0.010,0.020
'14:08.925',0.060,0.015
'14:08.928',0.155,-0.010
'14:08.931',0.285,-0.050
'14:08.933',0.455,-0.075
'14:08.936',0.650,-0.065
'14:08.939',0.865,-0.030
'14:08.942',1.085,0.035
'14:08.944',1.330,0.130
'14:08.947',1.520,0.255
'14:08.950',1.640,0.420
'14:08.953',1.655,0.610
'14:08.956',1.530,0.765
'14:08.958',1.320,0.840
'14:08.961',1.055,0.805
'14:08.964',0.760,0.660
'14:08.967',0.485,0.460
'14:08.969',0.270,0.240
'14:08.972',0.110,0.065
'14:08.975',0.050,-0.060
'14:08.978',0.035,-0.105
'14:08.981',0.065,-0.090
'14:08.983',0.100,-0.050
'14:08.986',0.105,0.010
'14:08.989',0.100,0.035
'14:08.992',0.075,0.040
'14:08.994',0.030,-0.005
'14:08.997',0.005,-0.040
'14:09.000',-0.015,-0.045
'14:09.003',-0.035,-0.040
'14:09.006',-0.040,-0.040
'14:09.008',-0.035,-0.035
'14:09.011',-0.015,-0.045
'14:09.014',-0.010,-0.055
'14:09.017',0.005,-0.045
'14:09.019',0.000,-0.015
'14:09.022',-0.015,-0.010
'14:09.025',-0.010,-0.025
'14:09.028',-0.020,-0.045
'14:09.031',-0.025,-0.060
'14:09.033',-0.035,-0.055
'14:09.036',-0.035,-0.050
'14:09.039',-0.030,-0.050
'14:09.042',-0.030,-0.045
'14:09.044',-0.025,-0.045
'14:09.047',-0.015,-0.030
'14:09.050',0.000,-0.020
'14:09.053',0.005,-0.005
'14:09.056',0.000,-0.020
'14:09.058',-0.015,-0.040
'14:09.061',-0.035,-0.045
'14:09.064',-0.050,-0.050
'14:09.067',-0.045,-0.040
'14:09.069',-0.040,-0.040
'14:09.072',-0.025,-0.065
'14:09.075',-0.020,-0.060
'14:09.078',-0.015,-0.065
'14:09.081',-0.020,-0.040
'14:09.083',-0.015,-0.025
'14:09.086',-0.010,-0.040
'14:09.089',0.000,-0.045
'14:09.092',-0.020,-0.050
'14:09.094',-0.010,-0.060
'14:09.097',-0.015,-0.050
'14:09.100',-0.020,-0.045
'14:09.103',-0.025,-0.065
'14:09.106',-0.015,-0.075
'14:09.108',0.000,-0.070
'14:09.111',0.000,-0.065
'14:09.114',-0.010,-0.055
'14:09.117',0.010,-0.035
'14:09.119',0.010,-0.075
'14:09.122',-0.010,-0.085
'14:09.125',0.000,-0.095
'14:09.128',-0.010,-0.105
'14:09.131',-0.015,-0.115
'14:09.133',-0.020,-0.140
'14:09.136',-0.015,-0.145
'14:09.139',-0.025,-0.145
'14:09.142',-0.030,-0.135
'14:09.144',-0.035,-0.115
'14:09.147',-0.030,-0.110
'14:09.150',-0.020,-0.110
'14:09.153',-0.010,-0.115
'14:09.156',-0.015,-0.115
'14:09.158',-0.020,-0.090
'14:09.161',-0.040,-0.080
'14:09.164',-0.045,-0.090
'14:09.167',-0.055,-0.105
'14:09.169',-0.060,-0.125
'14:09.172',-0.070,-0.120
'14:09.175',-0.055,-0.090
'14:09.178',-0.050,-0.085
'14:09.181',-0.025,-0.070
'14:09.183',-0.005,-0.095
'14:09.186',0.005,-0.115
'14:09.189',0.005,-0.125
'14:09.192',0.015,-0.120
'14:09.194',0.020,-0.095
'14:09.197',0.035,-0.075
'14:09.200',0.045,-0.070
'14:09.203',0.065,-0.060
'14:09.206',0.080,-0.050
'14:09.208',0.100,-0.015
'14:09.211',0.130,0.030
'14:09.214',0.135,0.040
'14:09.217',0.145,0.045
'14:09.219',0.145,0.020
'14:09.222',0.135,0.030
'14:09.225',0.125,0.030
'14:09.228',0.110,0.050
'14:09.231',0.095,0.040
'14:09.233',0.110,0.035
'14:09.236',0.115,0.000
'14:09.239',0.105,0.015
'14:09.242',0.100,0.045
'14:09.244',0.105,0.065
'14:09.247',0.110,0.075
'14:09.250',0.110,0.055
'14:09.253',0.120,0.045
'14:09.256',0.140,0.025
'14:09.258',0.130,0.035
'14:09.261',0.135,0.040
'14:09.264',0.125,0.035
'14:09.267',0.115,0.015
'14:09.269',0.110,0.020
'14:09.272',0.115,0.020
'14:09.275',0.115,0.055
'14:09.278',0.120,0.070
'14:09.281',0.120,0.060
'14:09.283',0.140,0.035
'14:09.286',0.145,0.010
'14:09.289',0.135,-0.005
'14:09.292',0.140,-0.005
'14:09.294',0.130,0.015
'14:09.297',0.125,0.025
'14:09.300',0.135,0.025
'14:09.303',0.140,0.030
'14:09.306',0.135,0.035
'14:09.308',0.125,0.050
'14:09.311',0.125,0.060
'14:09.314',0.125,0.075
'14:09.317',0.140,0.045
'14:09.319',0.145,0.025
'14:09.322',0.155,0.010
'14:09.325',0.150,0.015
'14:09.328',0.135,0.035
'14:09.331',0.110,0.050
'14:09.333',0.100,0.040
'14:09.336',0.110,0.010
'14:09.339',0.105,0.000
'14:09.342',0.115,0.005
'14:09.344',0.130,0.020
'14:09.347',0.145,0.050
'14:09.350',0.155,0.045
'14:09.353',0.160,0.035
'14:09.356',0.170,0.025
'14:09.358',0.140,0.010
'14:09.361',0.135,-0.005
'14:09.364',0.120,-0.005
'14:09.367',0.115,-0.005
'14:09.369',0.115,-0.010
'14:09.372',0.115,-0.020
'14:09.375',0.120,-0.005
'14:09.378',0.110,0.015
'14:09.381',0.135,0.035
'14:09.383',0.150,0.040
'14:09.386',0.155,0.035
'14:09.389',0.145,0.040
'14:09.392',0.135,0.030
'14:09.394',0.120,0.040
'14:09.397',0.115,0.040
'14:09.400',0.085,0.045
'14:09.403',0.090,0.025
'14:09.406',0.105,0.005
'14:09.408',0.115,0.020
'14:09.411',0.120,0.025
'14:09.414',0.120,0.035
'14:09.417',0.120,0.040
'14:09.419',0.120,0.020
'14:09.422',0.120,0.005
'14:09.425',0.105,-0.005
'14:09.428',0.090,0.010
'14:09.431',0.065,0.010
'14:09.433',0.035,0.005
'14:09.436',0.035,-0.030
'14:09.439',0.035,-0.040
'14:09.442',0.025,-0.025
'14:09.444',0.015,-0.015
'14:09.447',0.000,-0.005
'14:09.450',0.035,0.005
'14:09.453',0.040,-0.010
'14:09.456',0.050,-0.025
'14:09.458',0.065,-0.010
'14:09.461',0.070,-0.005
'14:09.464',0.085,0.040
'14:09.467',0.075,0.065
'14:09.469',0.090,0.075
'14:09.472',0.095,0.085
'14:09.475',0.100,0.090
'14:09.478',0.105,0.105
'14:09.481',0.115,0.115
'14:09.483',0.125,0.100
'14:09.486',0.135,0.090
'14:09.489',0.135,0.055
'14:09.492',0.130,0.030
'14:09.494',0.105,0.035
'14:09.497',0.090,0.030
'14:09.500',0.070,0.025
'14:09.503',0.080,0.000
'14:09.506',0.095,-0.015
'14:09.508',0.125,-0.010
'14:09.511',0.175,0.010
'14:09.514',0.285,0.040
'14:09.517',0.415,0.040
'14:09.519',0.580,-0.005
'14:09.522',0.795,-0.035
'14:09.525',1.010,-0.030
'14:09.528',1.250,0.005
'14:09.531',1.475,0.110
'14:09.533',1.680,0.260
'14:09.536',1.815,0.400
'14:09.539',1.830,0.540
'14:09.542',1.750,0.670
'14:09.544',1.560,0.760
'14:09.547',1.315,0.775
'14:09.550',1.020,0.695
'14:09.553',0.730,0.525
'14:09.556',0.470,0.295
'14:09.558',0.280,0.065
'14:09.561',0.175,-0.075
'14:09.564',0.120,-0.135
'14:09.567',0.110,-0.120
'14:09.569',0.120,-0.080
'14:09.572',0.150,-0.035
'14:09.575',0.175,-0.020
'14:09.578',0.175,0.000
'14:09.581',0.145,0.010
'14:09.583',0.130,0.010
'14:09.586',0.100,0.020
'14:09.589',0.080,0.015
'14:09.592',0.075,-0.025
'14:09.594',0.075,-0.035
'14:09.597',0.055,-0.050
'14:09.600',0.030,-0.050
'14:09.603',0.020,-0.055
'14:09.606',0.025,-0.040
'14:09.608',0.035,-0.040
'14:09.611',0.040,-0.055
'14:09.614',0.040,-0.035
'14:09.617',0.050,-0.025
'14:09.619',0.045,-0.005
'14:09.622',0.040,0.000
'14:09.625',0.040,-0.015
'14:09.628',0.040,-0.040
'14:09.631',0.030,-0.050
'14:09.633',0.020,-0.035
'14:09.636',0.000,-0.025
'14:09.639',0.005,-0.030
'14:09.642',0.015,-0.030
'14:09.644',0.045,-0.040
'14:09.647',0.045,-0.035
'14:09.650',0.045,-0.025
'14:09.653',0.035,0.000
'14:09.656',0.020,0.000
'14:09.658',0.035,-0.020
'14:09.661',0.050,-0.040
'14:09.664',0.040,-0.055
'14:09.667',0.035,-0.040
'14:09.669',0.025,-0.005
'14:09.672',0.010,-0.005
'14:09.675',0.020,-0.015
'14:09.678',0.030,-0.025
'14:09.681',0.035,-0.040
'14:09.683',0.055,-0.025
'14:09.686',0.055,-0.035
'14:09.689',0.045,-0.015
'14:09.692',0.040,-0.020
'14:09.694',0.040,-0.035
'14:09.697',0.035,-0.060
'14:09.700',0.005,-0.075
'14:09.703',0.005,-0.070
'14:09.706',0.000,-0.080
'14:09.708',0.020,-0.065
'14:09.711',0.035,-0.080
'14:09.714',0.035,-0.080
'14:09.717',0.075,-0.060
'14:09.719',0.075,-0.040
'14:09.722',0.055,-0.015
'14:09.725',0.040,-0.020
'14:09.728',0.025,-0.040
'14:09.731',0.010,-0.065
'14:09.733',0.000,-0.095
'14:09.736',0.010,-0.095
'14:09.739',0.010,-0.095
'14:09.742',0.010,-0.095
'14:09.744',0.025,-0.105
'14:09.747',0.020,-0.095
'14:09.750',0.005,-0.090
'14:09.753',-0.005,-0.070
'14:09.756',-0.010,-0.060
'14:09.758',-0.020,-0.085
'14:09.761',-0.005,-0.100
'14:09.764',-0.005,-0.120
'14:09.767',-0.010,-0.120
'14:09.769',-0.015,-0.080
'14:09.772',-0.030,-0.065
'14:09.775',-0.030,-0.050
'14:09.778',-0.030,-0.080
'14:09.781',-0.020,-0.080
'14:09.783',-0.015,-0.085
'14:09.786',-0.025,-0.080
'14:09.789',-0.010,-0.070
'14:09.792',0.000,-0.060
'14:09.794',0.020,-0.075
'14:09.797',0.030,-0.080
'14:09.800',0.035,-0.050
'14:09.803',0.050,-0.035
'14:09.806',0.075,-0.015
'14:09.808',0.095,-0.005
'14:09.811',0.125,0.010
'14:09.814',0.130,0.050
'14:09.817',0.145,0.075
'14:09.819',0.155,0.080
'14:09.822',0.150,0.080
'14:09.825',0.140,0.055
'14:09.828',0.140,0.045
'14:09.831',0.120,0.035
'14:09.833',0.125,0.045
'14:09.836',0.110,0.060
'14:09.839',0.120,0.050
'14:09.842',0.110,0.065
'14:09.844',0.115,0.085
'14:09.847',0.115,0.095
'14:09.850',0.115,0.100
'14:09.853',0.125,0.075
'14:09.856',0.110,0.065
'14:09.858',0.120,0.050
'14:09.861',0.100,0.065
'14:09.864',0.080,0.075
'14:09.867',0.085,0.075
'14:09.869',0.085,0.080
'14:09.872',0.075,0.070
'14:09.875',0.090,0.055
'14:09.878',0.105,0.075
'14:09.881',0.110,0.085
'14:09.883',0.125,0.085
'14:09.886',0.115,0.075
'14:09.889',0.100,0.060
'14:09.892',0.105,0.055
'14:09.894',0.095,0.055
'14:09.897',0.095,0.060
'14:09.900',0.095,0.045
'14:09.903',0.095,0.045
'14:09.906',0.105,0.070
'14:09.908',0.115,0.090
'14:09.911',0.100,0.110
'14:09.914',0.110,0.110
'14:09.917',0.125,0.070
'14:09.919',0.125,0.055
'14:09.922',0.115,0.060
'14:09.925',0.120,0.070
'14:09.928',0.115,0.075
'14:09.931',0.120,0.065
'14:09.933',0.115,0.045
'14:09.936',0.110,0.030
'14:09.939',0.105,0.050
'14:09.942',0.105,0.055
'14:09.944',0.125,0.070
'14:09.947',0.145,0.070
'14:09.950',0.155,0.065
'14:09.953',0.150,0.065
'14:09.956',0.140,0.080
'14:09.958',0.125,0.075
'14:09.961',0.120,0.070
'14:09.964',0.115,0.040
'14:09.967',0.095,0.030
'14:09.969',0.110,0.030
'14:09.972',0.110,0.055
'14:09.975',0.120,0.065
'14:09.978',0.125,0.080
'14:09.981',0.130,0.070
'14:09.983',0.135,0.065
'14:09.986',0.115,0.065
'14:09.989',0.120,0.075
'14:09.992',0.110,0.085
'14:09.994',0.110,0.090
'14:09.997',0.100,0.075
'14:10.000',0.100,0.065
'14:10.003',0.075,0.055
'14:10.006',0.075,0.065
'14:10.008',0.075,0.075
'14:10.011',0.080,0.065
'14:10.014',0.095,0.065
'14:10.017',0.095,0.075
'14:10.019',0.100,0.095
'14:10.022',0.090,0.110
'14:10.025',0.100,0.095
'14:10.028',0.085,0.065
'14:10.031',0.075,0.050
'14:10.033',0.065,0.030
'14:10.036',0.055,0.025
'14:10.039',0.065,0.045
'14:10.042',0.045,0.050
'14:10.044',0.055,0.040
'14:10.047',0.055,0.045
'14:10.050',0.045,0.050
'14:10.053',0.035,0.045
'14:10.056',0.015,0.045
'14:10.058',0.000,0.025
'14:10.061',-0.010,0.015
'14:10.064',-0.030,-0.020
'14:10.067',-0.030,-0.020
'14:10.069',-0.040,0.005
'14:10.072',-0.035,0.010
'14:10.075',-0.015,0.015
'14:10.078',0.000,0.020
'14:10.081',0.020,0.040
'14:10.083',0.060,0.080
'14:10.086',0.070,0.120
'14:10.089',0.075,0.135
'14:10.092',0.075,0.145
'14:10.094',0.070,0.110
'14:10.097',0.075,0.100
'14:10.100',0.070,0.095
'14:10.103',0.060,0.115
'14:10.106',0.075,0.115
'14:10.108',0.085,0.115
'14:10.111',0.090,0.095
'14:10.114',0.070,0.065
'14:10.117',0.065,0.030
'14:10.119',0.060,0.010
'14:10.122',0.075,0.000
'14:10.125',0.110,-0.005
'14:10.128',0.205,-0.010
'14:10.131',0.320,-0.020
'14:10.133',0.465,-0.030
'14:10.136',0.645,-0.030
'14:10.139',0.860,-0.020
'14:10.142',1.090,0.005
'14:10.144',1.315,0.055
'14:10.147',1.530,0.145
'14:10.150',1.695,0.300
'14:10.153',1.755,0.470
'14:10.156',1.690,0.625
'14:10.158',1.525,0.710
'14:10.161',1.275,0.735
'14:10.164',0.965,0.655
'14:10.167',0.665,0.500
'14:10.169',0.410,0.305
'14:10.172',0.230,0.115
'14:10.175',0.115,-0.010
'14:10.178',0.070,-0.070
'14:10.181',0.080,-0.065
'14:10.183',0.110,-0.025
'14:10.186',0.130,0.040
'14:10.189',0.125,0.065
'14:10.192',0.105,0.060
'14:10.194',0.080,0.030
'14:10.197',0.060,-0.005
'14:10.200',0.035,0.000
'14:10.203',0.005,0.005
'14:10.206',-0.010,0.005
'14:10.208',0.005,0.025
'14:10.211',-0.005,0.010
'14:10.214',0.015,0.005
'14:10.217',0.020,0.020
'14:10.219',0.020,0.025
'14:10.222',0.010,0.000
'14:10.225',0.015,-0.030
'14:10.228',0.005,-0.055
'14:10.231',0.005,-0.060
'14:10.233',-0.005,-0.035
'14:10.236',-0.005,-0.015
'14:10.239',0.005,-0.005
'14:10.242',-0.005,0.000
'14:10.244',-0.005,-0.005
'14:10.247',0.005,-0.010
'14:10.250',0.005,0.000
'14:10.253',0.010,0.015
'14:10.256',0.010,0.035
'14:10.258',0.010,0.030
'14:10.261',0.015,0.005
'14:10.264',0.005,-0.025
'14:10.267',-0.020,-0.030
'14:10.269',-0.015,-0.020
'14:10.272',-0.015,-0.020
'14:10.275',-0.020,-0.005
'14:10.278',0.000,-0.010
'14:10.281',0.000,-0.020
'14:10.283',0.015,-0.010
'14:10.286',0.015,0.015
'14:10.289',0.000,0.030
'14:10.292',-0.005,0.015
'14:10.294',0.000,0.010
'14:10.297',0.005,-0.025
'14:10.300',-0.005,-0.040
'14:10.303',-0.005,-0.020
'14:10.306',-0.010,-0.015
'14:10.308',0.000,-0.020
'14:10.311',0.030,0.000
'14:10.314',0.035,-0.005
'14:10.317',0.045,-0.025
'14:10.319',0.035,-0.030
'14:10.322',0.035,-0.010
'14:10.325',0.015,-0.020
'14:10.328',0.020,-0.030
'14:10.331',0.010,-0.055
'14:10.333',0.005,-0.070
'14:10.336',0.005,-0.075
'14:10.339',0.005,-0.065
'14:10.342',0.010,-0.055
'14:10.344',0.015,-0.065
'14:10.347',0.025,-0.075
'14:10.350',0.030,-0.090
'14:10.353',0.025,-0.100
'14:10.356',0.015,-0.070
'14:10.358',0.000,-0.055
'14:10.361',-0.005,-0.060
'14:10.364',-0.015,-0.070
'14:10.367',-0.015,-0.085
'14:10.369',-0.030,-0.100
'14:10.372',-0.015,-0.085
'14:10.375',-0.010,-0.065
'14:10.378',0.000,-0.045
'14:10.381',0.010,-0.045
'14:10.383',0.020,-0.060
'14:10.386',0.010,-0.075
'14:10.389',0.010,-0.080
'14:10.392',-0.005,-0.090
'14:10.394',-0.025,-0.080
'14:10.397',-0.035,-0.075
'14:10.400',-0.035,-0.090
'14:10.403',-0.015,-0.105
'14:10.406',-0.010,-0.105
'14:10.408',0.005,-0.080
'14:10.411',0.015,-0.055
'14:10.414',0.010,-0.040
'14:10.417',0.025,-0.030
'14:10.419',0.045,-0.050
'14:10.422',0.065,-0.030
'14:10.425',0.075,-0.025
'14:10.428',0.090,-0.005
'14:10.431',0.090,0.005
'14:10.433',0.100,0.005
'14:10.436',0.100,0.005
'14:10.439',0.110,0.010
'14:10.442',0.100,0.035
'14:10.444',0.105,0.060
'14:10.447',0.120,0.080
'14:10.450',0.125,0.075
'14:10.453',0.140,0.065
'14:10.456',0.125,0.060
'14:10.458',0.115,0.075
'14:10.461',0.105,0.070
'14:10.464',0.095,0.080
'14:10.467',0.085,0.060
'14:10.469',0.095,0.050
'14:10.472',0.090,0.055
'14:10.475',0.095,0.065
'14:10.478',0.090,0.090
'14:10.481',0.095,0.110
'14:10.483',0.105,0.100
'14:10.486',0.100,0.085
'14:10.489',0.105,0.055
'14:10.492',0.095,0.050
'14:10.494',0.090,0.045
'14:10.497',0.085,0.065
'14:10.500',0.070,0.050
'14:10.503',0.080,0.030
'14:10.506',0.085,0.030
'14:10.508',0.095,0.025
'14:10.511',0.100,0.050
'14:10.514',0.110,0.080
'14:10.517',0.105,0.085
'14:10.519',0.110,0.065
'14:10.522',0.095,0.055
'14:10.525',0.095,0.040
'14:10.528',0.090,0.030
'14:10.531',0.075,0.055
'14:10.533',0.065,0.055
'14:10.536',0.060,0.050
'14:10.539',0.070,0.035
'14:10.542',0.075,0.050
'14:10.544',0.080,0.055
'14:10.547',0.075,0.065
'14:10.550',0.080,0.070
'14:10.553',0.085,0.065
'14:10.556',0.090,0.030
'14:10.558',0.095,0.005
'14:10.561',0.100,0.005
'14:10.564',0.085,0.005
'14:10.567',0.075,0.020
'14:10.569',0.055,0.035
'14:10.572',0.065,0.030
'14:10.575',0.070,0.025
'14:10.578',0.100,0.040
'14:10.581',0.105,0.070
'14:10.583',0.105,0.075
'14:10.586',0.105,0.070
'14:10.589',0.100,0.065
'14:10.592',0.090,0.050
'14:10.594',0.080,0.025
'14:10.597',0.075,0.010
'14:10.600',0.060,0.015
'14:10.603',0.055,0.035
'14:10.606',0.040,0.035
'14:10.608',0.055,0.030
'14:10.611',0.075,0.035
'14:10.614',0.075,0.055
'14:10.617',0.085,0.070
'14:10.619',0.075,0.065
'14:10.622',0.080,0.050
'14:10.625',0.080,0.025
'14:10.628',0.070,0.010
'14:10.631',0.055,0.005
'14:10.633',0.045,0.010
'14:10.636',0.035,0.010
'14:10.639',0.020,-0.005
'14:10.642',0.015,0.005
'14:10.644',0.010,-0.010
'14:10.647',0.000,0.005
'14:10.650',0.000,0.015
'14:10.653',-0.010,0.020
'14:10.656',-0.015,0.010
'14:10.658',-0.020,-0.010
'14:10.661',-0.020,-0.005
'14:10.664',-0.010,0.005
'14:10.667',-0.005,0.045
'14:10.669',0.010,0.060
'14:10.672',0.040,0.080
'14:10.675',0.040,0.095
'14:10.678',0.060,0.120
'14:10.681',0.065,0.155
'14:10.683',0.075,0.165
'14:10.686',0.085,0.150
'14:10.689',0.075,0.090
'14:10.692',0.080,0.070
'14:10.694',0.065,0.045
'14:10.697',0.040,0.055
'14:10.700',0.020,0.040
'14:10.703',0.015,0.020
'14:10.706',0.010,0.005
'14:10.708',-0.005,-0.035
'14:10.711',0.020,-0.010
'14:10.714',0.045,0.025
'14:10.717',0.105,0.045
'14:10.719',0.215,0.040
'14:10.722',0.365,-0.005
'14:10.725',0.570,-0.040
'14:10.728',0.800,-0.055
'14:10.731',1.070,-0.010
'14:10.733',1.315,0.095
'14:10.736',1.535,0.230
'14:10.739',1.670,0.385
'14:10.742',1.720,0.560
'14:10.744',1.640,0.695
'14:10.747',1.470,0.810
'14:10.750',1.210,0.820
'14:10.753',0.895,0.700
'14:10.756',0.605,0.495
'14:10.758',0.350,0.265
'14:10.761',0.200,0.075
'14:10.764',0.095,-0.045
'14:10.767',0.055,-0.075
'14:10.769',0.055,-0.070
'14:10.772',0.085,-0.040
'14:10.775',0.105,-0.015
'14:10.778',0.120,0.010
'14:10.781',0.100,0.020
'14:10.783',0.080,0.025
'14:10.786',0.060,0.030
'14:10.789',0.040,-0.005
'14:10.792',0.020,-0.030
'14:10.794',0.000,-0.030
'14:10.797',-0.020,-0.020
'14:10.800',-0.015,-0.030
'14:10.803',-0.030,-0.010
'14:10.806',-0.025,-0.010
'14:10.808',-0.010,-0.015
'14:10.811',-0.010,-0.025
'14:10.814',-0.005,-0.025
'14:10.817',-0.005,0.000
'14:10.819',0.000,0.000
'14:10.822',0.000,-0.005
'14:10.825',-0.005,-0.045
'14:10.828',-0.005,-0.050
'14:10.831',0.000,-0.045
'14:10.833',-0.005,-0.035
'14:10.836',-0.005,-0.015
'14:10.839',-0.020,0.010
'14:10.842',-0.015,-0.005
'14:10.844',-0.010,-0.005
'14:10.847',-0.015,-0.025
'14:10.850',0.000,0.005
'14:10.853',-0.025,0.005
'14:10.856',-0.020,-0.005
'14:10.858',-0.005,-0.015
'14:10.861',0.000,-0.040
'14:10.864',0.000,-0.040
'14:10.867',-0.010,-0.040
'14:10.869',-0.015,0.000
'14:10.872',-0.025,0.025
'14:10.875',-0.030,-0.005
'14:10.878',-0.010,-0.010
'14:10.881',-0.015,-0.020
'14:10.883',0.000,-0.025
'14:10.886',-0.005,-0.005
'14:10.889',-0.005,-0.010
'14:10.892',0.005,-0.020
'14:10.894',0.000,-0.055
'14:10.897',0.000,-0.045
'14:10.900',-0.015,-0.050
'14:10.903',-0.025,-0.025
'14:10.906',-0.025,-0.010
'14:10.908',-0.020,-0.010
'14:10.911',-0.005,-0.025
'14:10.914',0.000,-0.040
'14:10.917',0.015,-0.050
'14:10.919',0.000,-0.055
'14:10.922',0.005,-0.040
'14:10.925',0.005,-0.060
'14:10.928',-0.010,-0.070
'14:10.931',-0.015,-0.095
'14:10.933',-0.030,-0.105
'14:10.936',-0.025,-0.100
'14:10.939',-0.025,-0.100
'14:10.942',-0.010,-0.080
'14:10.944',0.015,-0.085
'14:10.947',0.005,-0.080
'14:10.950',0.000,-0.085
'14:10.953',-0.005,-0.085
'14:10.956',-0.025,-0.065
'14:10.958',-0.030,-0.085
'14:10.961',-0.030,-0.085
'14:10.964',-0.060,-0.110
'14:10.967',-0.055,-0.120
'14:10.969',-0.060,-0.105
'14:10.972',-0.065,-0.090
'14:10.975',-0.050,-0.065
'14:10.978',-0.040,-0.060
'14:10.981',-0.030,-0.070
'14:10.983',-0.030,-0.080
'14:10.986',-0.025,-0.080
'14:10.989',-0.035,-0.085
'14:10.992',-0.045,-0.070
'14:10.994',-0.045,-0.090
'14:10.997',-0.050,-0.085
'14:11.000',-0.050,-0.095
'14:11.003',-0.040,-0.090
'14:11.006',-0.025,-0.060
'14:11.008',-0.005,-0.035
'14:11.011',0.005,-0.020
'14:11.014',0.035,-0.010
'14:11.017',0.050,-0.010
'14:11.019',0.060,-0.010
'14:11.022',0.070,0.005
'14:11.025',0.080,0.020
'14:11.028',0.085,0.050
'14:11.031',0.085,0.045
'14:11.033',0.090,0.050
'14:11.036',0.090,0.030
'14:11.039',0.085,0.045
'14:11.042',0.090,0.070
'14:11.044',0.085,0.070
'14:11.047',0.095,0.085
'14:11.050',0.105,0.065
'14:11.053',0.095,0.055
'14:11.056',0.085,0.060
'14:11.058',0.070,0.070
'14:11.061',0.060,0.070
'14:11.064',0.060,0.060
'14:11.067',0.060,0.060
'14:11.069',0.060,0.055
'14:11.072',0.060,0.060
'14:11.075',0.050,0.070
'14:11.078',0.065,0.080
'14:11.081',0.080,0.070
'14:11.083',0.095,0.055
'14:11.086',0.080,0.055
'14:11.089',0.060,0.065
'14:11.092',0.050,0.070
'14:11.094',0.040,0.070
'14:11.097',0.050,0.060
'14:11.100',0.045,0.035
'14:11.103',0.060,0.030
'14:11.106',0.055,0.050
'14:11.108',0.060,0.070
'14:11.111',0.075,0.085
'14:11.114',0.070,0.090
'14:11.117',0.085,0.070
'14:11.119',0.090,0.055
'14:11.122',0.105,0.045
'14:11.125',0.095,0.055
'14:11.128',0.060,0.070
'14:11.131',0.060,0.060
'14:11.133',0.035,0.050
'14:11.136',0.055,0.035
'14:11.139',0.055,0.035
'14:11.142',0.050,0.060
'14:11.144',0.050,0.065
'14:11.147',0.050,0.075
'14:11.150',0.085,0.075
'14:11.153',0.080,0.050
'14:11.156',0.070,0.040
'14:11.158',0.070,0.045
'14:11.161',0.070,0.045
'14:11.164',0.065,0.070
'14:11.167',0.055,0.060
'14:11.169',0.060,0.050
'14:11.172',0.055,0.050
'14:11.175',0.070,0.050
'14:11.178',0.070,0.060
'14:11.181',0.080,0.085
'14:11.183',0.075,0.070
'14:11.186',0.070,0.060
'14:11.189',0.075,0.030
'14:11.192',0.065,0.045
'14:11.194',0.055,0.060
'14:11.197',0.060,0.070
'14:11.200',0.065,0.080
'14:11.203',0.065,0.070
'14:11.206',0.050,0.060
'14:11.208',0.050,0.065
'14:11.211',0.055,0.065
'14:11.214',0.060,0.075
'14:11.217',0.070,0.085
'14:11.219',0.070,0.075
'14:11.222',0.085,0.050
'14:11.225',0.075,0.045
'14:11.228',0.070,0.055
'14:11.231',0.050,0.075
'14:11.233',0.050,0.075
'14:11.236',0.045,0.075
'14:11.239',0.035,0.045
'14:11.242',0.035,0.035
'14:11.244',0.055,0.025
'14:11.247',0.055,0.050
'14:11.250',0.060,0.075
'14:11.253',0.060,0.065
'14:11.256',0.050,0.055
'14:11.258',0.045,0.035
'14:11.261',0.035,0.030
'14:11.264',0.015,0.035
'14:11.267',0.005,0.020
'14:11.269',0.000,0.020
'14:11.272',0.000,0.005
'14:11.275',0.000,0.000
'14:11.278',-0.010,0.010
'14:11.281',-0.015,0.035
'14:11.283',-0.035,0.030
'14:11.286',-0.045,0.035
'14:11.289',-0.050,0.000
'14:11.292',-0.025,-0.010
'14:11.294',-0.020,-0.015
'14:11.297',-0.015,0.005
'14:11.300',-0.005,0.040
'14:11.303',0.005,0.065
'14:11.306',0.020,0.085
'14:11.308',0.025,0.100
'14:11.311',0.040,0.115
'14:11.314',0.045,0.145
'14:11.317',0.055,0.160
'14:11.319',0.070,0.150
'14:11.322',0.085,0.150
'14:11.325',0.070,0.120
'14:11.328',0.060,0.105
'14:11.331',0.045,0.075
'14:11.333',0.045,0.075
'14:11.336',0.035,0.085
'14:11.339',0.035,0.080
'14:11.342',0.020,0.060
'14:11.344',0.025,0.025
'14:11.347',0.040,0.000
'14:11.350',0.080,0.010
'14:11.353',0.150,0.015
'14:11.356',0.260,0.035
'14:11.358',0.410,0.005
'14:11.361',0.590,-0.020
'14:11.364',0.785,-0.035
'14:11.367',1.000,-0.015
'14:11.369',1.215,0.055
'14:11.372',1.420,0.155
'14:11.375',1.600,0.295
'14:11.378',1.715,0.440
'14:11.381',1.740,0.590
'14:11.383',1.645,0.730
'14:11.386',1.455,0.820
'14:11.389',1.195,0.805
'14:11.392',0.900,0.705
'14:11.394',0.620,0.505
'14:11.397',0.390,0.290
'14:11.400',0.190,0.100
'14:11.403',0.070,-0.015
'14:11.406',0.010,-0.085
'14:11.408',0.010,-0.085
'14:11.411',0.035,-0.055
'14:11.414',0.070,-0.025
'14:11.417',0.105,0.015
'14:11.419',0.105,0.045
'14:11.422',0.090,0.060
'14:11.425',0.060,0.050
'14:11.428',0.030,0.015
'14:11.431',0.005,-0.010
'14:11.433',-0.015,-0.020
'14:11.436',-0.030,-0.025
'14:11.439',-0.030,-0.005
'14:11.442',-0.020,-0.005
'14:11.444',-0.005,-0.020
'14:11.447',-0.005,-0.015
'14:11.450',0.005,0.005
'14:11.453',-0.015,0.035
'14:11.456',-0.015,0.035
'14:11.458',-0.035,0.005
'14:11.461',-0.030,-0.030
'14:11.464',-0.025,-0.050
'14:11.467',-0.025,-0.040
'14:11.469',-0.015,-0.020
'14:11.472',-0.020,0.010
'14:11.475',-0.025,0.020
'14:11.478',-0.025,0.015
'14:11.481',-0.025,0.025
'14:11.483',-0.030,0.015
'14:11.486',-0.030,0.015
'14:11.489',-0.020,0.005
'14:11.492',-0.010,-0.010
'14:11.494',-0.020,-0.020
'14:11.497',-0.030,-0.025
'14:11.500',-0.035,-0.015
'14:11.503',-0.025,-0.015
'14:11.506',-0.025,-0.025
'14:11.508',-0.025,-0.025
'14:11.511',-0.010,-0.020
'14:11.514',-0.005,0.000
'14:11.517',-0.005,0.025
'14:11.519',-0.015,0.025
'14:11.522',-0.015,0.010
'14:11.525',-0.015,-0.025
'14:11.528',-0.010,-0.045
'14:11.531',-0.010,-0.050
'14:11.533',-0.025,-0.035
'14:11.536',-0.015,-0.030
'14:11.539',-0.020,-0.025
'14:11.542',-0.015,-0.025
'14:11.544',-0.025,-0.035
'14:11.547',-0.025,-0.020
'14:11.550',-0.010,-0.040
'14:11.553',0.000,-0.050
'14:11.556',-0.010,-0.050
'14:11.558',-0.010,-0.065
'14:11.561',-0.020,-0.060
'14:11.564',-0.030,-0.050
'14:11.567',-0.045,-0.060
'14:11.569',-0.055,-0.090
'14:11.572',-0.060,-0.120
'14:11.575',-0.045,-0.125
'14:11.578',-0.030,-0.115
'14:11.581',-0.040,-0.085
'14:11.583',-0.025,-0.050
'14:11.586',-0.020,-0.035
'14:11.589',-0.015,-0.055
'14:11.592',-0.025,-0.080
'14:11.594',-0.040,-0.095
'14:11.597',-0.060,-0.080
'14:11.600',-0.080,-0.080
'14:11.603',-0.085,-0.085
'14:11.606',-0.080,-0.110
'14:11.608',-0.060,-0.115
'14:11.611',-0.050,-0.100
'14:11.614',-0.040,-0.095
'14:11.617',-0.035,-0.085
'14:11.619',-0.035,-0.085
'14:11.622',-0.030,-0.085
'14:11.625',-0.015,-0.090
'14:11.628',-0.020,-0.080
'14:11.631',-0.005,-0.075
'14:11.633',-0.010,-0.055
'14:11.636',-0.005,-0.060
'14:11.639',0.030,-0.060
'14:11.642',0.060,-0.070
'14:11.644',0.070,-0.050
'14:11.647',0.085,-0.020
'14:11.650',0.105,0.025
'14:11.653',0.110,0.050
'14:11.656',0.085,0.070
'14:11.658',0.085,0.080
'14:11.661',0.060,0.090
'14:11.664',0.045,0.085
'14:11.667',0.050,0.085
'14:11.669',0.050,0.055
'14:11.672',0.060,0.040
'14:11.675',0.075,0.045
'14:11.678',0.075,0.075
'14:11.681',0.060,0.105
'14:11.683',0.065,0.085
'14:11.686',0.065,0.080
'14:11.689',0.055,0.040
'14:11.692',0.050,0.015
'14:11.694',0.045,0.025
'14:11.697',0.065,0.045
'14:11.700',0.050,0.055
'14:11.703',0.055,0.060
'14:11.706',0.045,0.075
'14:11.708',0.040,0.090
'14:11.711',0.035,0.100
'14:11.714',0.030,0.095
'14:11.717',0.040,0.065
'14:11.719',0.060,0.035
'14:11.722',0.060,0.030
'14:11.725',0.070,0.045
'14:11.728',0.050,0.060
'14:11.731',0.060,0.080
'14:11.733',0.050,0.075
'14:11.736',0.055,0.055
'14:11.739',0.045,0.035
'14:11.742',0.045,0.065
'14:11.744',0.040,0.060
'14:11.747',0.050,0.045
'14:11.750',0.060,0.035
'14:11.753',0.060,0.030
'14:11.756',0.060,0.040
'14:11.758',0.060,0.070
'14:11.761',0.050,0.070
'14:11.764',0.025,0.065
'14:11.767',0.035,0.040
'14:11.769',0.035,0.030
'14:11.772',0.035,0.035
'14:11.775',0.060,0.060
'14:11.778',0.065,0.075
'14:11.781',0.055,0.075
'14:11.783',0.065,0.055
'14:11.786',0.065,0.035
'14:11.789',0.060,0.025
'14:11.792',0.055,0.030
'14:11.794',0.055,0.030
'14:11.797',0.050,0.020
'14:11.800',0.050,0.020
'14:11.803',0.035,0.040
'14:11.806',0.025,0.035
'14:11.808',0.025,0.045
'14:11.811',0.025,0.060
'14:11.814',0.030,0.055
'14:11.817',0.040,0.040
'14:11.819',0.055,0.050
'14:11.822',0.050,0.055
'14:11.825',0.045,0.060
'14:11.828',0.030,0.060
'14:11.831',0.020,0.025
'14:11.833',0.030,0.000
'14:11.836',0.035,-0.010
'14:11.839',0.035,-0.005
'14:11.842',0.030,0.030
'14:11.844',0.030,0.070
'14:11.847',0.035,0.080
'14:11.850',0.035,0.065
'14:11.853',0.040,0.060
'14:11.856',0.025,0.070
'14:11.858',0.020,0.060
'14:11.861',0.020,0.065
'14:11.864',0.010,0.050
'14:11.867',0.000,0.035
'14:11.869',0.010,0.030
'14:11.872',0.010,0.035
'14:11.875',0.000,0.050
'14:11.878',-0.005,0.045
'14:11.881',0.000,0.050
'14:11.883',0.015,0.055
'14:11.886',0.025,0.045
'14:11.889',0.020,0.070
'14:11.892',0.005,0.080
'14:11.894',0.005,0.075
'14:11.897',0.000,0.050
'14:11.900',-0.020,0.010
'14:11.903',-0.030,0.000
'14:11.906',-0.040,0.000
'14:11.908',-0.035,0.020
'14:11.911',-0.030,0.015
'14:11.914',-0.025,0.000
'14:11.917',-0.040,-0.005
'14:11.919',-0.055,-0.010
'14:11.922',-0.070,0.010
'14:11.925',-0.090,0.005
'14:11.928',-0.120,0.000
'14:11.931',-0.120,-0.010
'14:11.933',-0.130,-0.045
'14:11.936',-0.125,-0.055
'14:11.939',-0.115,-0.025
'14:11.942',-0.095,0.025
'14:11.944',-0.065,0.080
'14:11.947',-0.045,0.115
'14:11.950',-0.035,0.135
'14:11.953',-0.025,0.130
'14:11.956',-0.025,0.120
'14:11.958',-0.020,0.105
'14:11.961',-0.015,0.090
'14:11.964',0.000,0.055
'14:11.967',0.005,0.040
'14:11.969',0.010,0.045
'14:11.972',-0.005,0.060
'14:11.975',-0.020,0.090
'14:11.978',-0.035,0.090
'14:11.981',-0.045,0.055
'14:11.983',-0.045,0.010
'14:11.986',-0.025,-0.025
'14:11.989',0.000,-0.030
'14:11.992',0.055,0.005
'14:11.994',0.110,0.050
'14:11.997',0.235,0.045
'14:12.000',0.385,0.020
'14:12.003',0.595,-0.015
'14:12.006',0.800,-0.025
'14:12.008',1.045,0.015
'14:12.011',1.265,0.080
'14:12.014',1.485,0.190
'14:12.017',1.655,0.315
'14:12.019',1.710,0.435
'14:12.022',1.660,0.570
'14:12.025',1.470,0.665
'14:12.028',1.200,0.680
'14:12.031',0.865,0.575
'14:12.033',0.540,0.390
'14:12.036',0.270,0.180
'14:12.039',0.075,-0.010
'14:12.042',-0.010,-0.100
'14:12.044',-0.035,-0.110
'14:12.047',-0.010,-0.075
'14:12.050',0.020,-0.025
'14:12.053',0.030,0.025
'14:12.056',0.035,0.050
'14:12.058',-0.005,0.060
'14:12.061',-0.030,0.045
'14:12.064',-0.065,0.015
'14:12.067',-0.100,-0.025
'14:12.069',-0.100,-0.060
'14:12.072',-0.115,-0.050
'14:12.075',-0.110,-0.045
'14:12.078',-0.115,-0.005
'14:12.081',-0.090,-0.005
'14:12.083',-0.075,-0.005
'14:12.086',-0.075,-0.015
'14:12.089',-0.085,-0.005
'14:12.092',-0.105,-0.005
'14:12.094',-0.110,-0.005
'14:12.097',-0.135,-0.025
'14:12.100',-0.125,-0.055
'14:12.103',-0.120,-0.080
'14:12.106',-0.120,-0.055
'14:12.108',-0.110,-0.025
'14:12.111',-0.120,-0.010
'14:12.114',-0.105,0.005
'14:12.117',-0.095,-0.010
'14:12.119',-0.090,-0.035
'14:12.122',-0.090,-0.020
'14:12.125',-0.100,-0.030
'14:12.128',-0.105,-0.035
'14:12.131',-0.110,-0.040
'14:12.133',-0.120,-0.060
'14:12.136',-0.105,-0.070
'14:12.139',-0.120,-0.060
'14:12.142',-0.115,-0.045
'14:12.144',-0.115,-0.020
'14:12.147',-0.110,-0.010
'14:12.150',-0.090,-0.005
'14:12.153',-0.080,0.000
'14:12.156',-0.080,0.000
'14:12.158',-0.100,0.000
'14:12.161',-0.110,-0.005
'14:12.164',-0.125,-0.025
'14:12.167',-0.135,-0.055
'14:12.169',-0.135,-0.065
'14:12.172',-0.120,-0.055
'14:12.175',-0.105,-0.050
'14:12.178',-0.105,-0.025
'14:12.181',-0.100,-0.025
'14:12.183',-0.090,-0.035
'14:12.186',-0.090,-0.070
'14:12.189',-0.080,-0.070
'14:12.192',-0.100,-0.070
'14:12.194',-0.105,-0.060
'14:12.197',-0.105,-0.050
'14:12.200',-0.110,-0.055
'14:12.203',-0.105,-0.055
'14:12.206',-0.130,-0.070
'14:12.208',-0.130,-0.075
'14:12.211',-0.130,-0.070
'14:12.214',-0.135,-0.080
'14:12.217',-0.120,-0.100
'14:12.219',-0.115,-0.120
'14:12.222',-0.110,-0.135
'14:12.225',-0.125,-0.145
'14:12.228',-0.120,-0.115
'14:12.231',-0.120,-0.105
'14:12.233',-0.120,-0.105
'14:12.236',-0.125,-0.100
'14:12.239',-0.145,-0.105
'14:12.242',-0.155,-0.115
'14:12.244',-0.160,-0.115
'14:12.247',-0.145,-0.110
'14:12.250',-0.120,-0.120
'14:12.253',-0.120,-0.110
'14:12.256',-0.110,-0.085
'14:12.258',-0.130,-0.055
'14:12.261',-0.150,-0.050
'14:12.264',-0.160,-0.060
'14:12.267',-0.155,-0.085
'14:12.269',-0.155,-0.105
'14:12.272',-0.155,-0.125
'14:12.275',-0.130,-0.115
'14:12.278',-0.110,-0.095
'14:12.281',-0.090,-0.065
'14:12.283',-0.060,-0.045
'14:12.286',-0.040,-0.025
'14:12.289',-0.045,0.015
'14:12.292',-0.030,0.045
'14:12.294',-0.035,0.055
'14:12.297',-0.040,0.035
'14:12.300',-0.040,0.015
'14:12.303',-0.055,-0.010
'14:12.306',-0.055,-0.005
'14:12.308',-0.065,0.010
'14:12.311',-0.055,0.030
'14:12.314',-0.035,0.055
'14:12.317',-0.020,0.050
'14:12.319',-0.010,0.050
'14:12.322',-0.010,0.055
'14:12.325',-0.015,0.065
'14:12.328',-0.055,0.045
'14:12.331',-0.055,0.010
'14:12.333',-0.065,0.005
'14:12.336',-0.065,0.010
'14:12.339',-0.070,0.050
'14:12.342',-0.070,0.085
'14:12.344',-0.060,0.075
'14:12.347',-0.060,0.070
'14:12.350',-0.045,0.035
'14:12.353',-0.050,0.025
'14:12.356',-0.035,0.035
'14:12.358',-0.030,0.055
'14:12.361',-0.040,0.065
'14:12.364',-0.045,0.075
'14:12.367',-0.055,0.060
'14:12.369',-0.070,0.040
'14:12.372',-0.070,0.045
'14:12.375',-0.065,0.055
'14:12.378',-0.075,0.030
'14:12.381',-0.050,0.020
'14:12.383',-0.050,0.005
'14:12.386',-0.040,0.025
'14:12.389',-0.050,0.045
'14:12.392',-0.045,0.055
'14:12.394',-0.060,0.055
'14:12.397',-0.065,0.035
'14:12.400',-0.065,0.020
'14:12.403',-0.065,0.020
'14:12.406',-0.075,0.035
'14:12.408',-0.085,0.050
'14:12.411',-0.080,0.055
'14:12.414',-0.065,0.045
'14:12.417',-0.045,0.030
'14:12.419',-0.040,0.045
'14:12.422',-0.045,0.055
'14:12.425',-0.060,0.050
'14:12.428',-0.065,0.050
'14:12.431',-0.060,0.035
'14:12.433',-0.075,0.020
'14:12.436',-0.100,0.035
'14:12.439',-0.105,0.045
'14:12.442',-0.090,0.030
'14:12.444',-0.060,0.025
'14:12.447',-0.045,0.025
'14:12.450',-0.035,0.045
'14:12.453',-0.040,0.060
'14:12.456',-0.050,0.080
'14:12.458',-0.070,0.070
'14:12.461',-0.080,0.035
'14:12.464',-0.090,-0.005
'14:12.467',-0.100,-0.015
'14:12.469',-0.110,-0.010
'14:12.472',-0.125,0.000
'14:12.475',-0.140,0.005
'14:12.478',-0.150,0.015
'14:12.481',-0.160,0.015
'14:12.483',-0.165,0.025
'14:12.486',-0.175,0.035
'14:12.489',-0.175,0.010
'14:12.492',-0.155,-0.010
'14:12.494',-0.150,-0.020
'14:12.497',-0.135,-0.015
'14:12.500',-0.115,0.030
'14:12.503',-0.115,0.080
'14:12.506',-0.115,0.105
'14:12.508',-0.120,0.105
'14:12.511',-0.105,0.105
'14:12.514',-0.100,0.105
'14:12.517',-0.090,0.090
'14:12.519',-0.080,0.080
'14:12.522',-0.065,0.070
'14:12.525',-0.050,0.040
'14:12.528',-0.070,0.050
'14:12.531',-0.085,0.040
'14:12.533',-0.120,0.045
'14:12.536',-0.140,0.050
'14:12.539',-0.155,0.025
'14:12.542',-0.170,0.005
'14:12.544',-0.125,-0.005
'14:12.547',-0.060,0.000
'14:12.550',0.060,-0.005
'14:12.553',0.230,-0.010
'14:12.556',0.435,-0.035
'14:12.558',0.675,-0.035
'14:12.561',0.930,0.005
'14:12.564',1.180,0.100
'14:12.567',1.380,0.245
'14:12.569',1.520,0.390
'14:12.572',1.560,0.520
'14:12.575',1.475,0.635
'14:12.578',1.280,0.690
'14:12.581',1.000,0.670
'14:12.583',0.680,0.555
'14:12.586',0.395,0.365
'14:12.589',0.160,0.160
'14:12.592',0.015,-0.020
'14:12.594',-0.055,-0.110
'14:12.597',-0.080,-0.130
'14:12.600',-0.085,-0.105
'14:12.603',-0.070,-0.050
'14:12.606',-0.060,-0.015
'14:12.608',-0.075,-0.005
'14:12.611',-0.080,0.005
'14:12.614',-0.105,0.005
'14:12.617',-0.120,0.015
'14:12.619',-0.140,-0.020
'14:12.622',-0.160,-0.040
'14:12.625',-0.165,-0.065
'14:12.628',-0.175,-0.055
'14:12.631',-0.185,-0.030
'14:12.633',-0.185,-0.025
'14:12.636',-0.200,-0.020
'14:12.639',-0.195,-0.040
'14:12.642',-0.190,-0.045
'14:12.644',-0.190,-0.045
'14:12.647',-0.185,-0.030
'14:12.650',-0.175,-0.030
'14:12.653',-0.175,-0.020
'14:12.656',-0.165,-0.020
'14:12.658',-0.160,-0.020
'14:12.661',-0.180,0.000
'14:12.664',-0.190,0.000
'14:12.667',-0.195,-0.010
'14:12.669',-0.200,-0.030
'14:12.672',-0.205,-0.040
'14:12.675',-0.215,-0.015
'14:12.678',-0.210,-0.010
'14:12.681',-0.195,-0.010
'14:12.683',-0.180,-0.015
'14:12.686',-0.180,-0.040
'14:12.689',-0.180,-0.025
'14:12.692',-0.185,-0.025
'14:12.694',-0.200,-0.005
'14:12.697',-0.195,-0.025
'14:12.700',-0.200,-0.050
'14:12.703',-0.210,-0.070
'14:12.706',-0.210,-0.075
'14:12.708',-0.195,-0.060
'14:12.711',-0.195,-0.040
'14:12.714',-0.175,-0.025
'14:12.717',-0.165,-0.025
'14:12.719',-0.170,-0.040
'14:12.722',-0.180,-0.045
'14:12.725',-0.180,-0.055
'14:12.728',-0.185,-0.070
'14:12.731',-0.185,-0.095
'14:12.733',-0.185,-0.105
'14:12.736',-0.190,-0.115
'14:12.739',-0.175,-0.105
'14:12.742',-0.180,-0.065
'14:12.744',-0.175,-0.060
'14:12.747',-0.170,-0.050
'14:12.750',-0.160,-0.080
'14:12.753',-0.175,-0.075
'14:12.756',-0.180,-0.080
'14:12.758',-0.205,-0.080
'14:12.761',-0.215,-0.110
'14:12.764',-0.200,-0.150
'14:12.767',-0.210,-0.165
'14:12.769',-0.210,-0.160
'14:12.772',-0.200,-0.145
'14:12.775',-0.195,-0.105
'14:12.778',-0.200,-0.085
'14:12.781',-0.190,-0.095
'14:12.783',-0.190,-0.105
'14:12.786',-0.195,-0.115
'14:12.789',-0.205,-0.125
'14:12.792',-0.210,-0.140
'14:12.794',-0.205,-0.140
'14:12.797',-0.220,-0.145
'14:12.800',-0.215,-0.135
'14:12.803',-0.220,-0.110
'14:12.806',-0.220,-0.085
'14:12.808',-0.215,-0.075
'14:12.811',-0.205,-0.095
'14:12.814',-0.175,-0.095
'14:12.817',-0.150,-0.095
'14:12.819',-0.145,-0.090
'14:12.822',-0.120,-0.045
'14:12.825',-0.130,-0.015
'14:12.828',-0.115,-0.005
'14:12.831',-0.110,-0.005
'14:12.833',-0.115,-0.005
'14:12.836',-0.125,0.005
'14:12.839',-0.125,0.015
'14:12.842',-0.115,0.045
'14:12.844',-0.105,0.030
'14:12.847',-0.090,0.025
'14:12.850',-0.075,0.020
'14:12.853',-0.085,0.005
'14:12.856',-0.080,0.030
'14:12.858',-0.090,0.035
'14:12.861',-0.110,0.015
'14:12.864',-0.105,0.010
'14:12.867',-0.110,0.015
'14:12.869',-0.115,0.035
'14:12.872',-0.135,0.060
'14:12.875',-0.130,0.065
'14:12.878',-0.120,0.055
'14:12.881',-0.115,0.030
'14:12.883',-0.105,0.010
'14:12.886',-0.110,0.020
'14:12.889',-0.115,0.035
'14:12.892',-0.120,0.050
'14:12.894',-0.130,0.045
'14:12.897',-0.130,0.020
'14:12.900',-0.125,0.015
'14:12.903',-0.135,0.035
'14:12.906',-0.135,0.060
'14:12.908',-0.135,0.090
'14:12.911',-0.135,0.095
'14:12.914',-0.125,0.090
'14:12.917',-0.115,0.075
'14:12.919',-0.110,0.055
'14:12.922',-0.115,0.055
'14:12.925',-0.125,0.035
'14:12.928',-0.140,0.020
'14:12.931',-0.165,0.000
'14:12.933',-0.145,-0.005
'14:12.936',-0.150,0.000
'14:12.939',-0.150,0.035
'14:12.942',-0.155,0.050
'14:12.944',-0.150,0.055
'14:12.947',-0.130,0.055
'14:12.950',-0.125,0.030
'14:12.953',-0.125,0.030
'14:12.956',-0.115,0.045
'14:12.958',-0.130,0.040
'14:12.961',-0.140,0.045
'14:12.964',-0.135,0.040
'14:12.967',-0.135,0.020
'14:12.969',-0.140,0.030
'14:12.972',-0.135,0.045
'14:12.975',-0.140,0.060
'14:12.978',-0.140,0.060
'14:12.981',-0.130,0.060
'14:12.983',-0.125,0.035
'14:12.986',-0.135,0.025
'14:12.989',-0.135,0.025
'14:12.992',-0.170,0.035
'14:12.994',-0.175,0.035
'14:12.997',-0.185,0.020
'14:13.000',-0.205,-0.005
'14:13.003',-0.220,-0.025
'14:13.006',-0.225,-0.020
'14:13.008',-0.235,-0.005
'14:13.011',-0.230,0.005
'14:13.014',-0.225,-0.005
'14:13.017',-0.225,-0.010
'14:13.019',-0.205,-0.035
'14:13.022',-0.205,-0.020
'14:13.025',-0.195,0.015
'14:13.028',-0.190,0.030
'14:13.031',-0.170,0.045
'14:13.033',-0.155,0.080
'14:13.036',-0.155,0.085
'14:13.039',-0.150,0.120
'14:13.042',-0.140,0.140
'14:13.044',-0.140,0.140
'14:13.047',-0.130,0.145
'14:13.050',-0.125,0.125
'14:13.053',-0.125,0.100
'14:13.056',-0.130,0.100
'14:13.058',-0.140,0.090
'14:13.061',-0.155,0.090
'14:13.064',-0.155,0.075
'14:13.067',-0.180,0.040
'14:13.069',-0.200,0.015
'14:13.072',-0.210,0.015
'14:13.075',-0.195,0.025
'14:13.078',-0.155,0.060
'14:13.081',-0.090,0.060
'14:13.083',0.010,0.050
'14:13.086',0.150,0.015
'14:13.089',0.330,-0.005
'14:13.092',0.555,0.000
'14:13.094',0.785,0.040
'14:13.097',1.030,0.105
'14:13.100',1.245,0.185
'14:13.103',1.385,0.325
'14:13.106',1.460,0.480
'14:13.108',1.410,0.640
'14:13.111',1.260,0.760
'14:13.114',1.025,0.780
'14:13.117',0.750,0.695
'14:13.119',0.470,0.510
'14:13.122',0.230,0.310
'14:13.125',0.050,0.130
'14:13.128',-0.075,0.020
'14:13.131',-0.130,-0.045
'14:13.133',-0.140,-0.060
'14:13.136',-0.135,-0.050
'14:13.139',-0.105,-0.025
'14:13.142',-0.090,0.040
'14:13.144',-0.095,0.075
'14:13.147',-0.110,0.085
'14:13.150',-0.140,0.075
'14:13.153',-0.160,0.010
'14:13.156',-0.175,-0.015
'14:13.158',-0.180,-0.035
'14:13.161',-0.210,-0.025
'14:13.164',-0.220,-0.020
'14:13.167',-0.220,-0.020
'14:13.169',-0.230,-0.025
'14:13.172',-0.225,-0.030
'14:13.175',-0.215,-0.025
'14:13.178',-0.225,0.000
'14:13.181',-0.225,0.010
'14:13.183',-0.225,0.015
'14:13.186',-0.215,0.005
'14:13.189',-0.205,-0.005
'14:13.192',-0.200,-0.015
'14:13.194',-0.210,-0.010
'14:13.197',-0.215,0.000
'14:13.200',-0.220,-0.005
'14:13.203',-0.220,-0.005
'14:13.206',-0.210,-0.015
'14:13.208',-0.205,-0.015
'14:13.211',-0.210,-0.010
'14:13.214',-0.200,0.020
'14:13.217',-0.205,0.030
'14:13.219',-0.200,0.015
'14:13.222',-0.200,-0.015
'14:13.225',-0.205,-0.015
'14:13.228',-0.205,-0.040
'14:13.231',-0.225,-0.010
'14:13.233',-0.225,-0.015
'14:13.236',-0.215,0.000
'14:13.239',-0.205,-0.020
'14:13.242',-0.210,-0.025
'14:13.244',-0.195,-0.030
'14:13.247',-0.215,-0.005
'14:13.250',-0.205,0.005
