'Elapsed time','MLII','V1'
'hh:mm:ss.mmm','mV','mV'
'5:00.000',-0.455,-0.210
'5:00.003',-0.450,-0.195
'5:00.006',-0.435,-0.200
'5:00.008',-0.415,-0.205
'5:00.011',-0.405,-0.235
'5:00.014',-0.420,-0.230
'5:00.017',-0.425,-0.210
'5:00.019',-0.415,-0.190
'5:00.022',-0.375,-0.160
'5:00.025',-0.370,-0.150
'5:00.028',-0.365,-0.160
'5:00.031',-0.375,-0.150
'5:00.033',-0.385,-0.130
'5:00.036',-0.355,-0.085
'5:00.039',-0.360,-0.065
'5:00.042',-0.350,-0.070
'5:00.044',-0.330,-0.050
'5:00.047',-0.340,-0.060
'5:00.050',-0.345,-0.030
'5:00.053',-0.335,-0.005
'5:00.056',-0.305,0.010
'5:00.058',-0.280,0.030
'5:00.061',-0.270,0.030
'5:00.064',-0.290,0.025
'5:00.067',-0.280,0.045
'5:00.069',-0.255,0.075
'5:00.072',-0.230,0.080
'5:00.075',-0.225,0.090
'5:00.078',-0.220,0.080
'5:00.081',-0.220,0.075
'5:00.083',-0.205,0.075
'5:00.086',-0.200,0.090
'5:00.089',-0.175,0.085
'5:00.092',-0.160,0.100
'5:00.094',-0.165,0.085
'5:00.097',-0.150,0.060
'5:00.100',-0.160,0.060
'5:00.103',-0.135,0.075
'5:00.106',-0.090,0.065
'5:00.108',-0.090,0.045
'5:00.111',-0.060,0.020
'5:00.114',-0.060,0.015
'5:00.117',-0.045,-0.005
'5:00.119',-0.025,0.000
'5:00.122',-0.005,-0.015
'5:00.125',0.000,-0.040
'5:00.128',0.000,-0.065
'5:00.131',0.005,-0.095
'5:00.133',-0.010,-0.105
'5:00.136',-0.005,-0.100
'5:00.139',0.005,-0.110
'5:00.142',0.015,-0.125
'5:00.144',0.015,-0.155
'5:00.147',-0.015,-0.170
'5:00.150',-0.040,-0.180
'5:00.153',-0.030,-0.165
'5:00.156',0.000,-0.150
'5:00.158',-0.010,-0.160
'5:00.161',-0.030,-0.195
'5:00.164',-0.040,-0.190
'5:00.167',-0.040,-0.180
'5:00.169',-0.035,-0.155
'5:00.172',-0.045,-0.150
'5:00.175',-0.040,-0.150
'5:00.178',-0.030,-0.160
'5:00.181',-0.065,-0.150
'5:00.183',-0.070,-0.140
'5:00.186',-0.090,-0.120
'5:00.189',-0.075,-0.090
'5:00.192',-0.055,-0.080
'5:00.194',-0.095,-0.080
'5:00.197',-0.120,-0.090
'5:00.200',-0.135,-0.050
'5:00.203',-0.110,-0.035
'5:00.206',-0.100,0.000
'5:00.208',-0.095,0.000
'5:00.211',-0.110,-0.020
'5:00.214',-0.115,-0.015
'5:00.217',-0.135,-0.015
'5:00.219',-0.140,0.000
'5:00.222',-0.135,0.005
'5:00.225',-0.130,0.000
'5:00.228',-0.125,-0.005
'5:00.231',-0.145,-0.010
'5:00.233',-0.155,-0.015
'5:00.236',-0.145,0.005
'5:00.239',-0.115,0.015
'5:00.242',-0.110,0.010
'5:00.244',-0.125,-0.005
'5:00.247',-0.135,0.000
'5:00.250',-0.140,-0.020
'5:00.253',-0.120,-0.010
'5:00.256',-0.120,-0.010
'5:00.258',-0.120,-0.020
'5:00.261',-0.120,-0.035
'5:00.264',-0.115,-0.045
'5:00.267',-0.125,-0.060
'5:00.269',-0.125,-0.045
'5:00.272',-0.130,-0.035
'5:00.275',-0.110,-0.055
'5:00.278',-0.105,-0.075
'5:00.281',-0.120,-0.110
'5:00.283',-0.135,-0.125
'5:00.286',-0.130,-0.125
'5:00.289',-0.100,-0.125
'5:00.292',-0.095,-0.125
'5:00.294',-0.120,-0.140
'5:00.297',-0.145,-0.155
'5:00.300',-0.135,-0.150
'5:00.303',-0.115,-0.140
'5:00.306',-0.105,-0.120
'5:00.308',-0.115,-0.125
'5:00.311',-0.140,-0.135
'5:00.314',-0.145,-0.140
'5:00.317',-0.155,-0.135
'5:00.319',-0.140,-0.115
'5:00.322',-0.145,-0.110
'5:00.325',-0.145,-0.115
'5:00.328',-0.160,-0.150
'5:00.331',-0.155,-0.140
'5:00.333',-0.170,-0.135
'5:00.336',-0.175,-0.110
'5:00.339',-0.180,-0.095
'5:00.342',-0.160,-0.075
'5:00.344',-0.155,-0.100
'5:00.347',-0.185,-0.100
'5:00.350',-0.210,-0.090
'5:00.353',-0.225,-0.070
'5:00.356',-0.200,-0.050
'5:00.358',-0.185,-0.045
'5:00.361',-0.200,-0.055
'5:00.364',-0.245,-0.040
'5:00.367',-0.235,-0.045
'5:00.369',-0.215,-0.015
'5:00.372',-0.190,0.005
'5:00.375',-0.180,0.000
'5:00.378',-0.190,-0.020
'5:00.381',-0.205,-0.035
'5:00.383',-0.205,-0.030
'5:00.386',-0.195,-0.015
'5:00.389',-0.185,0.000
'5:00.392',-0.170,0.010
'5:00.394',-0.175,-0.010
'5:00.397',-0.195,-0.005
'5:00.400',-0.185,-0.005
'5:00.403',-0.165,0.010
'5:00.406',-0.165,0.035
'5:00.408',-0.155,0.015
'5:00.411',-0.165,0.020
'5:00.414',-0.180,-0.005
'5:00.417',-0.195,0.010
'5:00.419',-0.180,0.015
'5:00.422',-0.160,0.025
'5:00.425',-0.145,0.010
'5:00.428',-0.155,0.000
'5:00.431',-0.160,-0.015
'5:00.433',-0.170,-0.010
'5:00.436',-0.170,-0.015
'5:00.439',-0.145,0.000
'5:00.442',-0.145,-0.020
'5:00.444',-0.155,-0.035
'5:00.447',-0.160,-0.050
'5:00.450',-0.170,-0.060
'5:00.453',-0.145,-0.020
'5:00.456',-0.115,-0.025
'5:00.458',-0.120,-0.050
'5:00.461',-0.130,-0.065
'5:00.464',-0.125,-0.080
'5:00.467',-0.140,-0.085
'5:00.469',-0.125,-0.070
'5:00.472',-0.110,-0.055
'5:00.475',-0.130,-0.060
'5:00.478',-0.110,-0.080
'5:00.481',-0.125,-0.100
'5:00.483',-0.140,-0.095
'5:00.486',-0.125,-0.075
'5:00.489',-0.120,-0.080
'5:00.492',-0.120,-0.055
'5:00.494',-0.120,-0.080
'5:00.497',-0.150,-0.085
'5:00.500',-0.170,-0.070
'5:00.503',-0.155,-0.040
'5:00.506',-0.125,-0.020
'5:00.508',-0.140,-0.010
'5:00.511',-0.160,-0.010
'5:00.514',-0.160,-0.015
'5:00.517',-0.115,0.015
'5:00.519',-0.070,0.045
'5:00.522',-0.040,0.060
'5:00.525',-0.005,0.075
'5:00.528',0.045,0.035
'5:00.531',0.100,0.025
'5:00.533',0.160,0.035
'5:00.536',0.220,0.055
'5:00.539',0.275,0.055
'5:00.542',0.340,0.015
'5:00.544',0.410,-0.040
'5:00.547',0.475,-0.100
'5:00.550',0.585,-0.145
'5:00.553',0.725,-0.190
'5:00.556',0.855,-0.235
'5:00.558',0.960,-0.320
'5:00.561',1.035,-0.390
'5:00.564',1.100,-0.445
'5:00.567',1.200,-0.465
'5:00.569',1.280,-0.470
'5:00.572',1.310,-0.485
'5:00.575',1.300,-0.570
'5:00.578',1.250,-0.640
'5:00.581',1.130,-0.700
'5:00.583',1.005,-0.695
'5:00.586',0.860,-0.660
'5:00.589',0.700,-0.600
'5:00.592',0.505,-0.530
'5:00.594',0.230,-0.475
'5:00.597',0.035,-0.405
'5:00.600',-0.130,-0.320
'5:00.603',-0.240,-0.230
'5:00.606',-0.290,-0.155
'5:00.608',-0.310,-0.120
'5:00.611',-0.345,-0.105
'5:00.614',-0.390,-0.085
'5:00.617',-0.405,-0.065
'5:00.619',-0.420,-0.040
'5:00.622',-0.430,-0.025
'5:00.625',-0.435,-0.025
'5:00.628',-0.455,-0.040
'5:00.631',-0.475,-0.055
'5:00.633',-0.485,-0.050
'5:00.636',-0.500,-0.015
'5:00.639',-0.500,0.000
'5:00.642',-0.505,-0.015
'5:00.644',-0.505,-0.020
'5:00.647',-0.535,-0.030
'5:00.650',-0.555,-0.030
'5:00.653',-0.550,-0.025
'5:00.656',-0.525,0.005
'5:00.658',-0.530,-0.020
'5:00.661',-0.540,-0.025
'5:00.664',-0.560,-0.035
'5:00.667',-0.565,-0.030
'5:00.669',-0.565,-0.010
'5:00.672',-0.560,0.000
'5:00.675',-0.545,-0.005
'5:00.678',-0.555,-0.015
'5:00.681',-0.545,-0.030
'5:00.683',-0.545,-0.035
'5:00.686',-0.550,-0.040
'5:00.689',-0.550,-0.025
'5:00.692',-0.525,-0.030
'5:00.694',-0.530,-0.040
'5:00.697',-0.550,-0.035
'5:00.700',-0.555,-0.020
'5:00.703',-0.540,0.020
'5:00.706',-0.510,0.030
'5:00.708',-0.505,0.030
'5:00.711',-0.520,0.025
'5:00.714',-0.555,0.035
'5:00.717',-0.550,0.055
'5:00.719',-0.540,0.095
'5:00.722',-0.530,0.115
'5:00.725',-0.535,0.115
'5:00.728',-0.530,0.120
'5:00.731',-0.525,0.115
'5:00.733',-0.525,0.135
'5:00.736',-0.520,0.150
'5:00.739',-0.505,0.185
'5:00.742',-0.495,0.160
'5:00.744',-0.505,0.155
'5:00.747',-0.510,0.150
'5:00.750',-0.535,0.155
'5:00.753',-0.500,0.200
'5:00.756',-0.480,0.205
'5:00.758',-0.455,0.210
'5:00.761',-0.445,0.200
'5:00.764',-0.445,0.175
'5:00.767',-0.420,0.190
'5:00.769',-0.395,0.200
'5:00.772',-0.375,0.215
'5:00.775',-0.365,0.205
'5:00.778',-0.325,0.200
'5:00.781',-0.310,0.180
'5:00.783',-0.285,0.165
'5:00.786',-0.265,0.190
'5:00.789',-0.220,0.195
'5:00.792',-0.175,0.175
'5:00.794',-0.160,0.170
'5:00.797',-0.140,0.130
'5:00.800',-0.130,0.140
'5:00.803',-0.095,0.140
'5:00.806',-0.065,0.150
'5:00.808',-0.035,0.130
'5:00.811',-0.045,0.110
'5:00.814',-0.060,0.095
'5:00.817',-0.065,0.095
'5:00.819',-0.030,0.105
'5:00.822',-0.030,0.110
'5:00.825',-0.025,0.085
'5:00.828',-0.020,0.070
'5:00.831',-0.040,0.045
'5:00.833',-0.035,0.025
'5:00.836',-0.035,0.015
'5:00.839',-0.025,-0.015
'5:00.842',-0.015,-0.015
'5:00.844',-0.025,-0.070
'5:00.847',-0.060,-0.085
'5:00.850',-0.065,-0.080
'5:00.853',-0.065,-0.060
'5:00.856',-0.050,-0.045
'5:00.858',-0.045,-0.050
'5:00.861',-0.075,-0.055
'5:00.864',-0.095,-0.060
'5:00.867',-0.100,-0.060
'5:00.869',-0.105,-0.035
'5:00.872',-0.125,-0.020
'5:00.875',-0.135,-0.025
'5:00.878',-0.155,-0.025
'5:00.881',-0.155,-0.025
'5:00.883',-0.160,0.005
'5:00.886',-0.165,0.005
'5:00.889',-0.155,0.025
'5:00.892',-0.155,0.025
'5:00.894',-0.145,0.005
'5:00.897',-0.155,-0.015
'5:00.900',-0.175,0.005
'5:00.903',-0.175,0.020
'5:00.906',-0.150,0.035
'5:00.908',-0.145,0.025
'5:00.911',-0.150,0.010
'5:00.914',-0.170,0.005
'5:00.917',-0.165,0.005
'5:00.919',-0.135,0.020
'5:00.922',-0.125,0.035
'5:00.925',-0.120,0.005
'5:00.928',-0.140,0.000
'5:00.931',-0.150,-0.025
'5:00.933',-0.145,-0.005
'5:00.936',-0.125,0.010
'5:00.939',-0.110,0.015
'5:00.942',-0.115,0.020
'5:00.944',-0.145,-0.005
'5:00.947',-0.160,0.000
'5:00.950',-0.155,0.005
'5:00.953',-0.160,0.020
'5:00.956',-0.145,0.030
'5:00.958',-0.140,0.025
'5:00.961',-0.140,0.005
'5:00.964',-0.145,-0.005
'5:00.967',-0.125,0.000
'5:00.969',-0.135,0.005
'5:00.972',-0.115,0.015
'5:00.975',-0.095,0.015
'5:00.978',-0.110,0.000
'5:00.981',-0.130,-0.015
'5:00.983',-0.130,-0.010
'5:00.986',-0.110,0.000
'5:00.989',-0.100,0.015
'5:00.992',-0.105,0.005
'5:00.994',-0.115,-0.020
'5:00.997',-0.130,-0.030
'5:01.000',-0.110,-0.015
'5:01.003',-0.090,-0.010
'5:01.006',-0.065,0.005
'5:01.008',-0.060,-0.010
'5:01.011',-0.060,-0.040
'5:01.014',-0.080,-0.050
'5:01.017',-0.095,-0.040
'5:01.019',-0.105,-0.040
'5:01.022',-0.105,-0.005
'5:01.025',-0.120,-0.005
'5:01.028',-0.125,-0.025
'5:01.031',-0.135,-0.020
'5:01.033',-0.155,-0.005
'5:01.036',-0.165,0.040
'5:01.039',-0.150,0.055
'5:01.042',-0.150,0.050
'5:01.044',-0.170,0.040
'5:01.047',-0.195,0.035
'5:01.050',-0.195,0.040
'5:01.053',-0.180,0.055
'5:01.056',-0.180,0.065
'5:01.058',-0.195,0.060
'5:01.061',-0.200,0.035
'5:01.064',-0.220,0.015
'5:01.067',-0.240,0.020
'5:01.069',-0.235,0.030
'5:01.072',-0.220,0.040
'5:01.075',-0.215,0.035
'5:01.078',-0.220,0.005
'5:01.081',-0.235,-0.015
'5:01.083',-0.255,0.010
'5:01.086',-0.240,0.025
'5:01.089',-0.230,0.030
'5:01.092',-0.220,0.025
'5:01.094',-0.235,0.020
'5:01.097',-0.250,-0.005
'5:01.100',-0.240,-0.005
'5:01.103',-0.225,0.000
'5:01.106',-0.225,0.030
'5:01.108',-0.235,0.005
'5:01.111',-0.240,-0.015
'5:01.114',-0.235,-0.025
'5:01.117',-0.255,-0.025
'5:01.119',-0.235,-0.035
'5:01.122',-0.235,-0.010
'5:01.125',-0.215,-0.040
'5:01.128',-0.220,-0.065
'5:01.131',-0.235,-0.085
'5:01.133',-0.240,-0.080
'5:01.136',-0.225,-0.080
'5:01.139',-0.215,-0.065
'5:01.142',-0.215,-0.085
'5:01.144',-0.205,-0.115
'5:01.147',-0.225,-0.150
'5:01.150',-0.240,-0.145
'5:01.153',-0.235,-0.125
'5:01.156',-0.230,-0.120
'5:01.158',-0.225,-0.125
'5:01.161',-0.230,-0.145
'5:01.164',-0.235,-0.165
'5:01.167',-0.240,-0.160
'5:01.169',-0.240,-0.145
'5:01.172',-0.220,-0.130
'5:01.175',-0.240,-0.140
'5:01.178',-0.245,-0.140
'5:01.181',-0.270,-0.135
'5:01.183',-0.270,-0.115
'5:01.186',-0.240,-0.085
'5:01.189',-0.225,-0.060
'5:01.192',-0.225,-0.040
'5:01.194',-0.235,-0.040
'5:01.197',-0.245,-0.015
'5:01.200',-0.245,0.015
'5:01.203',-0.230,0.065
'5:01.206',-0.230,0.095
'5:01.208',-0.225,0.105
'5:01.211',-0.215,0.110
'5:01.214',-0.230,0.105
'5:01.217',-0.245,0.115
'5:01.219',-0.240,0.130
'5:01.222',-0.210,0.140
'5:01.225',-0.215,0.150
'5:01.228',-0.230,0.130
'5:01.231',-0.255,0.110
'5:01.233',-0.225,0.115
'5:01.236',-0.220,0.130
'5:01.239',-0.205,0.155
'5:01.242',-0.200,0.140
'5:01.244',-0.200,0.130
'5:01.247',-0.200,0.135
'5:01.250',-0.210,0.140
'5:01.253',-0.215,0.135
'5:01.256',-0.190,0.145
'5:01.258',-0.190,0.125
'5:01.261',-0.190,0.095
'5:01.264',-0.180,0.075
'5:01.267',-0.115,0.055
'5:01.269',-0.045,0.080
'5:01.272',-0.005,0.085
'5:01.275',0.050,0.045
'5:01.278',0.135,0.025
'5:01.281',0.195,-0.005
'5:01.283',0.260,-0.010
'5:01.286',0.310,0.010
'5:01.289',0.380,-0.015
'5:01.292',0.470,-0.070
'5:01.294',0.535,-0.135
'5:01.297',0.650,-0.205
'5:01.300',0.815,-0.255
'5:01.303',0.995,-0.315
'5:01.306',1.125,-0.385
'5:01.308',1.200,-0.480
'5:01.311',1.250,-0.540
'5:01.314',1.335,-0.570
'5:01.317',1.405,-0.625
'5:01.319',1.405,-0.665
'5:01.322',1.390,-0.715
'5:01.325',1.315,-0.810
'5:01.328',1.175,-0.845
'5:01.331',0.990,-0.830
'5:01.333',0.820,-0.780
'5:01.336',0.640,-0.715
'5:01.339',0.420,-0.615
'5:01.342',0.150,-0.530
'5:01.344',-0.070,-0.450
'5:01.347',-0.235,-0.375
'5:01.350',-0.360,-0.260
'5:01.353',-0.425,-0.185
'5:01.356',-0.425,-0.125
'5:01.358',-0.435,-0.095
'5:01.361',-0.465,-0.105
'5:01.364',-0.495,-0.090
'5:01.367',-0.510,-0.045
'5:01.369',-0.505,-0.010
'5:01.372',-0.500,0.020
'5:01.375',-0.510,0.050
'5:01.378',-0.515,0.060
'5:01.381',-0.545,0.050
'5:01.383',-0.565,0.070
'5:01.386',-0.555,0.090
'5:01.389',-0.545,0.090
'5:01.392',-0.550,0.070
'5:01.394',-0.595,0.050
'5:01.397',-0.600,0.005
'5:01.400',-0.575,-0.010
'5:01.403',-0.545,-0.010
'5:01.406',-0.515,-0.010
'5:01.408',-0.535,-0.045
'5:01.411',-0.570,-0.065
'5:01.414',-0.585,-0.075
'5:01.417',-0.595,-0.065
'5:01.419',-0.595,-0.065
'5:01.422',-0.605,-0.060
'5:01.425',-0.625,-0.075
'5:01.428',-0.650,-0.090
'5:01.431',-0.645,-0.105
'5:01.433',-0.640,-0.095
'5:01.436',-0.625,-0.075
'5:01.439',-0.635,-0.070
'5:01.442',-0.610,-0.075
'5:01.444',-0.615,-0.080
'5:01.447',-0.610,-0.085
'5:01.450',-0.610,-0.070
'5:01.453',-0.610,-0.050
'5:01.456',-0.600,-0.025
'5:01.458',-0.575,-0.030
'5:01.461',-0.585,-0.025
'5:01.464',-0.595,-0.045
'5:01.467',-0.585,-0.040
'5:01.469',-0.580,-0.025
'5:01.472',-0.555,0.015
'5:01.475',-0.540,0.005
'5:01.478',-0.555,-0.005
'5:01.481',-0.560,-0.005
'5:01.483',-0.555,0.020
'5:01.486',-0.550,0.040
'5:01.489',-0.525,0.065
'5:01.492',-0.520,0.080
'5:01.494',-0.525,0.075
'5:01.497',-0.525,0.075
'5:01.500',-0.515,0.085
'5:01.503',-0.505,0.095
'5:01.506',-0.505,0.110
'5:01.508',-0.470,0.125
'5:01.511',-0.450,0.130
'5:01.514',-0.455,0.140
'5:01.517',-0.455,0.150
'5:01.519',-0.430,0.175
'5:01.522',-0.400,0.195
'5:01.525',-0.375,0.190
'5:01.528',-0.380,0.195
'5:01.531',-0.385,0.195
'5:01.533',-0.375,0.200
'5:01.536',-0.340,0.205
'5:01.539',-0.315,0.230
'5:01.542',-0.310,0.235
'5:01.544',-0.300,0.215
'5:01.547',-0.270,0.205
'5:01.550',-0.265,0.195
'5:01.553',-0.245,0.205
'5:01.556',-0.225,0.185
'5:01.558',-0.195,0.160
'5:01.561',-0.185,0.095
'5:01.564',-0.180,0.020
'5:01.567',-0.195,-0.005
'5:01.569',-0.175,-0.025
'5:01.572',-0.140,-0.040
'5:01.575',-0.140,-0.075
'5:01.578',-0.175,-0.095
'5:01.581',-0.210,-0.120
'5:01.583',-0.230,-0.115
'5:01.586',-0.225,-0.105
'5:01.589',-0.200,-0.105
'5:01.592',-0.215,-0.115
'5:01.594',-0.245,-0.125
'5:01.597',-0.240,-0.150
'5:01.600',-0.240,-0.135
'5:01.603',-0.235,-0.115
'5:01.606',-0.255,-0.120
'5:01.608',-0.240,-0.130
'5:01.611',-0.240,-0.150
'5:01.614',-0.255,-0.165
'5:01.617',-0.260,-0.155
'5:01.619',-0.250,-0.145
'5:01.622',-0.235,-0.130
'5:01.625',-0.220,-0.135
'5:01.628',-0.230,-0.150
'5:01.631',-0.245,-0.160
'5:01.633',-0.245,-0.135
'5:01.636',-0.220,-0.110
'5:01.639',-0.195,-0.105
'5:01.642',-0.215,-0.115
'5:01.644',-0.210,-0.120
'5:01.647',-0.215,-0.115
'5:01.650',-0.210,-0.090
'5:01.653',-0.205,-0.070
'5:01.656',-0.180,-0.040
'5:01.658',-0.145,-0.050
'5:01.661',-0.130,-0.060
'5:01.664',-0.130,-0.065
'5:01.667',-0.120,-0.075
'5:01.669',-0.100,-0.055
'5:01.672',-0.100,-0.055
'5:01.675',-0.100,-0.100
'5:01.678',-0.130,-0.160
'5:01.681',-0.150,-0.215
'5:01.683',-0.210,-0.260
'5:01.686',-0.330,-0.275
'5:01.689',-0.480,-0.300
'5:01.692',-0.625,-0.360
'5:01.694',-0.780,-0.420
'5:01.697',-0.855,-0.500
'5:01.700',-0.880,-0.610
'5:01.703',-0.910,-0.725
'5:01.706',-0.970,-0.820
'5:01.708',-1.055,-0.870
'5:01.711',-1.110,-0.925
'5:01.714',-1.080,-0.955
'5:01.717',-0.965,-0.995
'5:01.719',-0.865,-1.025
'5:01.722',-0.835,-1.050
'5:01.725',-0.865,-1.070
'5:01.728',-0.865,-1.095
'5:01.731',-0.845,-1.095
'5:01.733',-0.805,-1.050
'5:01.736',-0.750,-0.965
'5:01.739',-0.660,-0.895
'5:01.742',-0.535,-0.835
'5:01.744',-0.420,-0.805
'5:01.747',-0.350,-0.780
'5:01.750',-0.330,-0.730
'5:01.753',-0.350,-0.675
'5:01.756',-0.335,-0.625
'5:01.758',-0.380,-0.575
'5:01.761',-0.435,-0.530
'5:01.764',-0.435,-0.495
'5:01.767',-0.430,-0.430
'5:01.769',-0.425,-0.370
'5:01.772',-0.445,-0.300
'5:01.775',-0.445,-0.260
'5:01.778',-0.440,-0.230
'5:01.781',-0.400,-0.185
'5:01.783',-0.345,-0.130
'5:01.786',-0.300,-0.055
'5:01.789',-0.275,0.010
'5:01.792',-0.255,0.070
'5:01.794',-0.275,0.085
'5:01.797',-0.265,0.120
'5:01.800',-0.275,0.145
'5:01.803',-0.270,0.195
'5:01.806',-0.255,0.215
'5:01.808',-0.230,0.245
'5:01.811',-0.250,0.260
'5:01.814',-0.260,0.250
'5:01.817',-0.275,0.275
'5:01.819',-0.235,0.290
'5:01.822',-0.215,0.325
'5:01.825',-0.225,0.325
'5:01.828',-0.225,0.325
'5:01.831',-0.225,0.310
'5:01.833',-0.205,0.320
'5:01.836',-0.185,0.345
'5:01.839',-0.180,0.360
'5:01.842',-0.155,0.350
'5:01.844',-0.145,0.340
'5:01.847',-0.145,0.330
'5:01.850',-0.135,0.360
'5:01.853',-0.115,0.375
'5:01.856',-0.075,0.385
'5:01.858',-0.055,0.375
'5:01.861',-0.050,0.345
'5:01.864',-0.025,0.320
'5:01.867',0.015,0.300
'5:01.869',0.055,0.285
'5:01.872',0.105,0.265
'5:01.875',0.135,0.240
'5:01.878',0.155,0.215
'5:01.881',0.180,0.210
'5:01.883',0.205,0.230
'5:01.886',0.225,0.255
'5:01.889',0.265,0.250
'5:01.892',0.320,0.270
'5:01.894',0.325,0.265
'5:01.897',0.330,0.260
'5:01.900',0.355,0.285
'5:01.903',0.395,0.335
'5:01.906',0.430,0.360
'5:01.908',0.445,0.385
'5:01.911',0.465,0.385
'5:01.914',0.480,0.395
'5:01.917',0.510,0.400
'5:01.919',0.545,0.415
'5:01.922',0.560,0.440
'5:01.925',0.575,0.430
'5:01.928',0.580,0.425
'5:01.931',0.580,0.410
'5:01.933',0.575,0.410
'5:01.936',0.575,0.420
'5:01.939',0.600,0.420
'5:01.942',0.600,0.400
'5:01.944',0.580,0.380
'5:01.947',0.540,0.355
'5:01.950',0.520,0.360
'5:01.953',0.515,0.360
'5:01.956',0.530,0.360
'5:01.958',0.500,0.345
'5:01.961',0.440,0.315
'5:01.964',0.405,0.290
'5:01.967',0.380,0.275
'5:01.969',0.355,0.275
'5:01.972',0.345,0.270
'5:01.975',0.310,0.235
'5:01.978',0.255,0.215
'5:01.981',0.200,0.190
'5:01.983',0.175,0.185
'5:01.986',0.180,0.195
'5:01.989',0.190,0.200
'5:01.992',0.200,0.160
'5:01.994',0.225,0.150
'5:01.997',0.260,0.135
'5:02.000',0.275,0.140
'5:02.003',0.235,0.190
'5:02.006',0.135,0.250
'5:02.008',0.035,0.305
'5:02.011',-0.110,0.345
'5:02.014',-0.245,0.390
'5:02.017',-0.360,0.465
'5:02.019',-0.420,0.515
'5:02.022',-0.435,0.545
'5:02.025',-0.455,0.525
'5:02.028',-0.500,0.460
'5:02.031',-0.580,0.370
'5:02.033',-0.665,0.270
'5:02.036',-0.720,0.175
'5:02.039',-0.800,0.065
'5:02.042',-0.910,-0.040
'5:02.044',-0.995,-0.185
'5:02.047',-1.055,-0.325
'5:02.050',-1.115,-0.465
'5:02.053',-1.155,-0.575
'5:02.056',-1.235,-0.670
'5:02.058',-1.330,-0.720
'5:02.061',-1.395,-0.800
'5:02.064',-1.420,-0.830
'5:02.067',-1.405,-0.845
'5:02.069',-1.405,-0.820
'5:02.072',-1.420,-0.780
'5:02.075',-1.485,-0.750
'5:02.078',-1.560,-0.725
'5:02.081',-1.565,-0.685
'5:02.083',-1.500,-0.630
'5:02.086',-1.380,-0.565
'5:02.089',-1.215,-0.520
'5:02.092',-1.105,-0.485
'5:02.094',-1.025,-0.460
'5:02.097',-0.975,-0.410
'5:02.100',-0.925,-0.355
'5:02.103',-0.855,-0.295
'5:02.106',-0.800,-0.240
'5:02.108',-0.740,-0.215
'5:02.111',-0.685,-0.190
'5:02.114',-0.635,-0.145
'5:02.117',-0.580,-0.115
'5:02.119',-0.510,-0.045
'5:02.122',-0.415,-0.015
'5:02.125',-0.365,0.020
'5:02.128',-0.370,0.020
'5:02.131',-0.350,0.045
'5:02.133',-0.325,0.075
'5:02.136',-0.305,0.105
'5:02.139',-0.290,0.120
'5:02.142',-0.265,0.105
'5:02.144',-0.255,0.100
'5:02.147',-0.260,0.100
'5:02.150',-0.255,0.110
'5:02.153',-0.235,0.125
'5:02.156',-0.190,0.150
'5:02.158',-0.165,0.140
'5:02.161',-0.165,0.135
'5:02.164',-0.160,0.130
'5:02.167',-0.160,0.135
'5:02.169',-0.115,0.155
'5:02.172',-0.070,0.155
'5:02.175',-0.035,0.110
'5:02.178',-0.020,0.070
'5:02.181',0.020,0.030
'5:02.183',0.055,0.010
'5:02.186',0.085,0.010
'5:02.189',0.130,0.005
'5:02.192',0.155,-0.010
'5:02.194',0.195,-0.040
'5:02.197',0.230,-0.055
'5:02.200',0.245,-0.035
'5:02.203',0.310,-0.030
'5:02.206',0.375,-0.025
'5:02.208',0.430,-0.020
'5:02.211',0.450,-0.040
'5:02.214',0.480,-0.045
'5:02.217',0.540,-0.030
'5:02.219',0.580,-0.030
'5:02.222',0.610,-0.015
'5:02.225',0.655,-0.015
'5:02.228',0.685,-0.015
'5:02.231',0.705,-0.015
'5:02.233',0.715,-0.005
'5:02.236',0.745,0.040
'5:02.239',0.800,0.060
'5:02.242',0.800,0.060
'5:02.244',0.815,0.075
'5:02.247',0.800,0.090
'5:02.250',0.800,0.110
'5:02.253',0.800,0.155
'5:02.256',0.805,0.170
'5:02.258',0.780,0.180
'5:02.261',0.750,0.200
'5:02.264',0.710,0.215
'5:02.267',0.675,0.230
'5:02.269',0.635,0.260
'5:02.272',0.610,0.275
'5:02.275',0.575,0.270
'5:02.278',0.510,0.255
'5:02.281',0.435,0.240
'5:02.283',0.390,0.240
'5:02.286',0.335,0.245
'5:02.289',0.305,0.240
'5:02.292',0.245,0.230
'5:02.294',0.190,0.200
'5:02.297',0.145,0.185
'5:02.300',0.095,0.175
'5:02.303',0.070,0.170
'5:02.306',0.055,0.150
'5:02.308',0.065,0.125
'5:02.311',0.065,0.080
'5:02.314',0.095,0.050
'5:02.317',0.130,0.040
'5:02.319',0.200,0.055
'5:02.322',0.175,0.095
'5:02.325',0.080,0.125
'5:02.328',-0.040,0.175
'5:02.331',-0.160,0.230
'5:02.333',-0.250,0.310
'5:02.336',-0.315,0.365
'5:02.339',-0.350,0.395
'5:02.342',-0.385,0.370
'5:02.344',-0.460,0.300
'5:02.347',-0.585,0.210
'5:02.350',-0.680,0.130
'5:02.353',-0.775,0.025
'5:02.356',-0.880,-0.050
'5:02.358',-0.960,-0.150
'5:02.361',-1.030,-0.270
'5:02.364',-1.075,-0.410
'5:02.367',-1.140,-0.530
'5:02.369',-1.210,-0.610
'5:02.372',-1.250,-0.670
'5:02.375',-1.275,-0.720
'5:02.378',-1.270,-0.755
'5:02.381',-1.270,-0.795
'5:02.383',-1.285,-0.775
'5:02.386',-1.325,-0.715
'5:02.389',-1.375,-0.680
'5:02.392',-1.430,-0.625
'5:02.394',-1.435,-0.610
'5:02.397',-1.385,-0.550
'5:02.400',-1.275,-0.490
'5:02.403',-1.135,-0.450
'5:02.406',-1.025,-0.405
'5:02.408',-0.965,-0.350
'5:02.411',-0.955,-0.315
'5:02.414',-0.930,-0.265
'5:02.417',-0.890,-0.205
'5:02.419',-0.830,-0.140
'5:02.422',-0.775,-0.110
'5:02.425',-0.740,-0.085
'5:02.428',-0.720,-0.065
'5:02.431',-0.705,-0.045
'5:02.433',-0.630,0.005
'5:02.436',-0.560,0.050
'5:02.439',-0.510,0.070
'5:02.442',-0.490,0.070
'5:02.444',-0.480,0.065
'5:02.447',-0.475,0.045
'5:02.450',-0.465,0.065
'5:02.453',-0.435,0.060
'5:02.456',-0.415,0.070
'5:02.458',-0.385,0.050
'5:02.461',-0.370,0.030
'5:02.464',-0.380,0.015
'5:02.467',-0.370,0.020
'5:02.469',-0.355,0.045
'5:02.472',-0.325,0.055
'5:02.475',-0.295,0.065
'5:02.478',-0.305,0.065
'5:02.481',-0.300,0.065
'5:02.483',-0.280,0.080
'5:02.486',-0.225,0.095
'5:02.489',-0.205,0.115
'5:02.492',-0.175,0.110
'5:02.494',-0.165,0.105
'5:02.497',-0.155,0.110
'5:02.500',-0.130,0.125
'5:02.503',-0.095,0.150
'5:02.506',-0.060,0.190
'5:02.508',-0.035,0.180
'5:02.511',-0.010,0.190
'5:02.514',-0.010,0.160
'5:02.517',0.015,0.185
'5:02.519',0.065,0.195
'5:02.522',0.125,0.200
'5:02.525',0.165,0.195
'5:02.528',0.190,0.175
'5:02.531',0.195,0.150
'5:02.533',0.235,0.160
'5:02.536',0.275,0.175
'5:02.539',0.310,0.185
'5:02.542',0.375,0.175
'5:02.544',0.390,0.185
'5:02.547',0.400,0.185
'5:02.550',0.410,0.200
'5:02.553',0.455,0.230
'5:02.556',0.500,0.255
'5:02.558',0.525,0.250
'5:02.561',0.525,0.250
'5:02.564',0.535,0.250
'5:02.567',0.510,0.280
'5:02.569',0.530,0.300
'5:02.572',0.555,0.300
'5:02.575',0.540,0.290
'5:02.578',0.500,0.270
'5:02.581',0.470,0.265
'5:02.583',0.465,0.280
'5:02.586',0.445,0.285
'5:02.589',0.420,0.260
'5:02.592',0.375,0.260
'5:02.594',0.325,0.235
'5:02.597',0.285,0.195
'5:02.600',0.255,0.180
'5:02.603',0.205,0.180
'5:02.606',0.175,0.195
'5:02.608',0.120,0.165
'5:02.611',0.065,0.105
'5:02.614',0.015,0.080
'5:02.617',-0.015,0.060
'5:02.619',-0.055,0.050
'5:02.622',-0.100,0.040
'5:02.625',-0.110,0.020
'5:02.628',-0.170,0.010
'5:02.631',-0.205,-0.010
'5:02.633',-0.240,0.005
'5:02.636',-0.255,0.030
'5:02.639',-0.260,0.015
'5:02.642',-0.305,0.010
'5:02.644',-0.330,-0.010
'5:02.647',-0.355,-0.010
'5:02.650',-0.390,-0.005
'5:02.653',-0.390,0.005
'5:02.656',-0.375,0.020
'5:02.658',-0.380,0.010
'5:02.661',-0.415,-0.005
'5:02.664',-0.445,-0.010
'5:02.667',-0.445,0.005
'5:02.669',-0.445,0.005
'5:02.672',-0.420,0.005
'5:02.675',-0.415,-0.010
'5:02.678',-0.425,-0.025
'5:02.681',-0.430,-0.045
'5:02.683',-0.420,-0.030
'5:02.686',-0.370,-0.015
'5:02.689',-0.295,0.005
'5:02.692',-0.200,-0.010
'5:02.694',-0.125,-0.015
'5:02.697',-0.105,0.005
'5:02.700',-0.155,0.080
'5:02.703',-0.200,0.155
'5:02.706',-0.265,0.245
'5:02.708',-0.360,0.305
'5:02.711',-0.450,0.375
'5:02.714',-0.515,0.400
'5:02.717',-0.555,0.365
'5:02.719',-0.565,0.325
'5:02.722',-0.600,0.245
'5:02.725',-0.675,0.140
'5:02.728',-0.785,0.015
'5:02.731',-0.910,-0.065
'5:02.733',-1.000,-0.115
'5:02.736',-1.050,-0.155
'5:02.739',-1.005,-0.225
'5:02.742',-0.905,-0.340
'5:02.744',-0.835,-0.430
'5:02.747',-0.790,-0.485
'5:02.750',-0.675,-0.515
'5:02.753',-0.520,-0.535
'5:02.756',-0.365,-0.570
'5:02.758',-0.310,-0.560
'5:02.761',-0.300,-0.550
'5:02.764',-0.270,-0.510
'5:02.767',-0.205,-0.485
'5:02.769',-0.120,-0.455
'5:02.772',-0.065,-0.410
'5:02.775',-0.050,-0.390
'5:02.778',-0.110,-0.365
'5:02.781',-0.245,-0.330
'5:02.783',-0.390,-0.305
'5:02.786',-0.485,-0.255
'5:02.789',-0.530,-0.215
'5:02.792',-0.595,-0.190
'5:02.794',-0.670,-0.175
'5:02.797',-0.720,-0.150
'5:02.800',-0.745,-0.095
'5:02.803',-0.735,-0.055
'5:02.806',-0.690,-0.030
'5:02.808',-0.695,-0.035
'5:02.811',-0.720,-0.020
'5:02.814',-0.730,-0.045
'5:02.817',-0.730,-0.025
'5:02.819',-0.715,-0.020
'5:02.822',-0.705,-0.020
'5:02.825',-0.700,-0.020
'5:02.828',-0.720,-0.045
'5:02.831',-0.715,-0.050
'5:02.833',-0.705,-0.040
'5:02.836',-0.680,-0.035
'5:02.839',-0.660,-0.015
'5:02.842',-0.640,-0.015
'5:02.844',-0.640,-0.050
'5:02.847',-0.630,-0.060
'5:02.850',-0.625,-0.055
'5:02.853',-0.590,-0.050
'5:02.856',-0.560,-0.025
'5:02.858',-0.545,-0.040
'5:02.861',-0.550,-0.055
'5:02.864',-0.525,-0.045
'5:02.867',-0.520,-0.030
'5:02.869',-0.490,0.005
'5:02.872',-0.450,0.030
'5:02.875',-0.410,0.040
'5:02.878',-0.405,0.030
'5:02.881',-0.410,0.035
'5:02.883',-0.390,0.050
'5:02.886',-0.345,0.090
'5:02.889',-0.310,0.115
'5:02.892',-0.280,0.110
'5:02.894',-0.270,0.105
'5:02.897',-0.240,0.100
'5:02.900',-0.225,0.110
'5:02.903',-0.195,0.120
'5:02.906',-0.160,0.125
'5:02.908',-0.145,0.120
'5:02.911',-0.120,0.120
'5:02.914',-0.120,0.105
'5:02.917',-0.095,0.110
'5:02.919',-0.085,0.120
'5:02.922',-0.075,0.135
'5:02.925',-0.100,0.120
'5:02.928',-0.120,0.090
'5:02.931',-0.135,0.070
'5:02.933',-0.135,0.070
'5:02.936',-0.150,0.090
'5:02.939',-0.160,0.095
'5:02.942',-0.180,0.095
'5:02.944',-0.220,0.080
'5:02.947',-0.255,0.065
'5:02.950',-0.295,0.070
'5:02.953',-0.295,0.090
'5:02.956',-0.285,0.095
'5:02.958',-0.305,0.085
'5:02.961',-0.340,0.065
'5:02.964',-0.375,0.045
'5:02.967',-0.390,0.000
'5:02.969',-0.390,0.000
'5:02.972',-0.385,-0.030
'5:02.975',-0.380,-0.055
'5:02.978',-0.410,-0.085
'5:02.981',-0.430,-0.105
'5:02.983',-0.435,-0.110
'5:02.986',-0.450,-0.095
'5:02.989',-0.440,-0.100
'5:02.992',-0.470,-0.110
'5:02.994',-0.480,-0.135
'5:02.997',-0.490,-0.145
'5:03.000',-0.485,-0.145
'5:03.003',-0.485,-0.130
'5:03.006',-0.470,-0.140
'5:03.008',-0.480,-0.150
'5:03.011',-0.495,-0.185
'5:03.014',-0.515,-0.165
'5:03.017',-0.530,-0.150
'5:03.019',-0.520,-0.125
'5:03.022',-0.500,-0.090
'5:03.025',-0.500,-0.080
'5:03.028',-0.490,-0.070
'5:03.031',-0.460,-0.065
'5:03.033',-0.425,-0.040
'5:03.036',-0.365,0.020
'5:03.039',-0.355,0.035
'5:03.042',-0.355,0.050
'5:03.044',-0.380,0.060
'5:03.047',-0.435,0.080
'5:03.050',-0.475,0.110
'5:03.053',-0.455,0.125
'5:03.056',-0.410,0.125
'5:03.058',-0.350,0.100
'5:03.061',-0.280,0.045
'5:03.064',-0.180,0.005
'5:03.067',-0.045,-0.070
'5:03.069',0.090,-0.115
'5:03.072',0.225,-0.165
'5:03.075',0.350,-0.235
'5:03.078',0.455,-0.310
'5:03.081',0.530,-0.420
'5:03.083',0.565,-0.500
'5:03.086',0.520,-0.555
'5:03.089',0.405,-0.565
'5:03.092',0.270,-0.570
'5:03.094',0.135,-0.575
'5:03.097',-0.005,-0.550
'5:03.100',-0.140,-0.470
'5:03.103',-0.325,-0.405
'5:03.106',-0.485,-0.325
'5:03.108',-0.620,-0.300
'5:03.111',-0.720,-0.275
'5:03.114',-0.800,-0.245
'5:03.117',-0.835,-0.200
'5:03.119',-0.850,-0.175
'5:03.122',-0.870,-0.130
'5:03.125',-0.895,-0.140
'5:03.128',-0.920,-0.155
'5:03.131',-0.945,-0.140
'5:03.133',-0.975,-0.135
'5:03.136',-0.960,-0.145
'5:03.139',-0.955,-0.150
'5:03.142',-0.960,-0.170
'5:03.144',-0.965,-0.190
'5:03.147',-1.000,-0.200
'5:03.150',-0.985,-0.170
'5:03.153',-0.970,-0.155
'5:03.156',-0.980,-0.135
'5:03.158',-0.990,-0.135
'5:03.161',-1.000,-0.150
'5:03.164',-1.015,-0.160
'5:03.167',-1.015,-0.120
'5:03.169',-1.000,-0.115
'5:03.172',-0.985,-0.080
'5:03.175',-0.965,-0.080
'5:03.178',-0.985,-0.085
'5:03.181',-1.000,-0.070
'5:03.183',-0.990,-0.050
'5:03.186',-0.975,-0.015
'5:03.189',-0.955,0.005
'5:03.192',-0.955,0.015
'5:03.194',-0.955,0.005
'5:03.197',-0.985,0.015
'5:03.200',-0.980,0.020
'5:03.203',-0.975,0.045
'5:03.206',-0.955,0.055
'5:03.208',-0.945,0.035
'5:03.211',-0.950,0.020
'5:03.214',-0.970,-0.005
'5:03.217',-0.950,-0.025
'5:03.219',-0.925,-0.020
'5:03.222',-0.910,-0.035
'5:03.225',-0.910,-0.045
'5:03.228',-0.905,-0.090
'5:03.231',-0.905,-0.100
'5:03.233',-0.895,-0.110
'5:03.236',-0.865,-0.100
'5:03.239',-0.830,-0.115
'5:03.242',-0.810,-0.145
'5:03.244',-0.780,-0.180
'5:03.247',-0.775,-0.205
'5:03.250',-0.740,-0.200
'5:03.253',-0.715,-0.195
'5:03.256',-0.685,-0.205
'5:03.258',-0.660,-0.220
'5:03.261',-0.615,-0.245
'5:03.264',-0.610,-0.255
'5:03.267',-0.605,-0.255
'5:03.269',-0.570,-0.235
'5:03.272',-0.540,-0.225
'5:03.275',-0.515,-0.255
'5:03.278',-0.530,-0.265
'5:03.281',-0.525,-0.270
'5:03.283',-0.530,-0.250
'5:03.286',-0.530,-0.220
'5:03.289',-0.505,-0.210
'5:03.292',-0.520,-0.200
'5:03.294',-0.540,-0.200
'5:03.297',-0.555,-0.205
'5:03.300',-0.565,-0.180
'5:03.303',-0.550,-0.170
'5:03.306',-0.530,-0.155
'5:03.308',-0.535,-0.155
'5:03.311',-0.545,-0.155
'5:03.314',-0.565,-0.140
'5:03.317',-0.560,-0.115
'5:03.319',-0.540,-0.080
'5:03.322',-0.535,-0.055
'5:03.325',-0.540,-0.030
'5:03.328',-0.540,-0.015
'5:03.331',-0.545,-0.015
'5:03.333',-0.555,-0.005
'5:03.336',-0.540,0.025
'5:03.339',-0.520,0.050
'5:03.342',-0.530,0.065
'5:03.344',-0.510,0.065
'5:03.347',-0.515,0.075
'5:03.350',-0.505,0.070
'5:03.353',-0.490,0.075
'5:03.356',-0.470,0.085
'5:03.358',-0.475,0.060
'5:03.361',-0.480,0.025
'5:03.364',-0.495,0.000
'5:03.367',-0.490,-0.020
'5:03.369',-0.475,-0.035
'5:03.372',-0.475,-0.080
'5:03.375',-0.460,-0.140
'5:03.378',-0.475,-0.190
'5:03.381',-0.495,-0.240
'5:03.383',-0.490,-0.240
'5:03.386',-0.485,-0.240
'5:03.389',-0.465,-0.230
'5:03.392',-0.475,-0.245
'5:03.394',-0.480,-0.265
'5:03.397',-0.495,-0.265
'5:03.400',-0.485,-0.245
'5:03.403',-0.490,-0.225
'5:03.406',-0.470,-0.210
'5:03.408',-0.470,-0.215
'5:03.411',-0.485,-0.240
'5:03.414',-0.480,-0.235
'5:03.417',-0.480,-0.220
'5:03.419',-0.485,-0.195
'5:03.422',-0.475,-0.185
'5:03.425',-0.475,-0.195
'5:03.428',-0.475,-0.215
'5:03.431',-0.495,-0.210
'5:03.433',-0.520,-0.210
'5:03.436',-0.510,-0.180
'5:03.439',-0.500,-0.165
'5:03.442',-0.485,-0.170
'5:03.444',-0.515,-0.185
'5:03.447',-0.520,-0.185
'5:03.450',-0.505,-0.175
'5:03.453',-0.485,-0.150
'5:03.456',-0.480,-0.120
'5:03.458',-0.500,-0.140
'5:03.461',-0.485,-0.140
'5:03.464',-0.500,-0.150
'5:03.467',-0.490,-0.125
'5:03.469',-0.480,-0.115
'5:03.472',-0.490,-0.105
'5:03.475',-0.485,-0.100
'5:03.478',-0.485,-0.090
'5:03.481',-0.500,-0.105
'5:03.483',-0.520,-0.100
'5:03.486',-0.520,-0.080
'5:03.489',-0.490,-0.045
'5:03.492',-0.490,-0.060
'5:03.494',-0.510,-0.070
'5:03.497',-0.515,-0.075
'5:03.500',-0.510,-0.055
'5:03.503',-0.480,-0.035
'5:03.506',-0.475,-0.015
'5:03.508',-0.475,-0.030
'5:03.511',-0.505,-0.030
'5:03.514',-0.500,-0.030
'5:03.517',-0.520,-0.010
'5:03.519',-0.495,0.000
'5:03.522',-0.465,0.000
'5:03.525',-0.465,0.005
'5:03.528',-0.475,-0.025
'5:03.531',-0.485,-0.045
'5:03.533',-0.485,-0.045
'5:03.536',-0.465,-0.045
'5:03.539',-0.450,-0.060
'5:03.542',-0.455,-0.080
'5:03.544',-0.465,-0.120
'5:03.547',-0.465,-0.140
'5:03.550',-0.450,-0.150
'5:03.553',-0.420,-0.165
'5:03.556',-0.405,-0.165
'5:03.558',-0.400,-0.180
'5:03.561',-0.410,-0.210
'5:03.564',-0.425,-0.210
'5:03.567',-0.425,-0.210
'5:03.569',-0.440,-0.205
'5:03.572',-0.420,-0.205
'5:03.575',-0.415,-0.230
'5:03.578',-0.425,-0.230
'5:03.581',-0.440,-0.250
'5:03.583',-0.445,-0.240
'5:03.586',-0.450,-0.220
'5:03.589',-0.445,-0.200
'5:03.592',-0.450,-0.195
'5:03.594',-0.455,-0.210
'5:03.597',-0.470,-0.215
'5:03.600',-0.475,-0.190
'5:03.603',-0.460,-0.165
'5:03.606',-0.435,-0.140
'5:03.608',-0.440,-0.155
'5:03.611',-0.460,-0.170
'5:03.614',-0.455,-0.155
'5:03.617',-0.465,-0.125
'5:03.619',-0.450,-0.110
'5:03.622',-0.425,-0.100
'5:03.625',-0.420,-0.100
'5:03.628',-0.430,-0.125
'5:03.631',-0.455,-0.125
'5:03.633',-0.445,-0.105
'5:03.636',-0.400,-0.075
'5:03.639',-0.415,-0.065
'5:03.642',-0.415,-0.070
'5:03.644',-0.425,-0.060
'5:03.647',-0.430,-0.075
'5:03.650',-0.430,-0.055
'5:03.653',-0.415,-0.015
'5:03.656',-0.405,-0.010
'5:03.658',-0.420,-0.005
'5:03.661',-0.420,-0.025
'5:03.664',-0.425,-0.035
'5:03.667',-0.425,-0.010
'5:03.669',-0.410,0.010
'5:03.672',-0.400,0.020
'5:03.675',-0.405,0.010
'5:03.678',-0.410,-0.010
'5:03.681',-0.420,-0.030
'5:03.683',-0.400,-0.035
'5:03.686',-0.380,-0.035
'5:03.689',-0.350,-0.065
'5:03.692',-0.360,-0.105
'5:03.694',-0.350,-0.145
'5:03.697',-0.355,-0.155
'5:03.700',-0.375,-0.185
'5:03.703',-0.360,-0.190
'5:03.706',-0.330,-0.190
'5:03.708',-0.310,-0.210
'5:03.711',-0.315,-0.230
'5:03.714',-0.315,-0.245
'5:03.717',-0.325,-0.230
'5:03.719',-0.305,-0.205
'5:03.722',-0.300,-0.200
'5:03.725',-0.325,-0.195
'5:03.728',-0.320,-0.195
'5:03.731',-0.305,-0.200
'5:03.733',-0.300,-0.155
'5:03.736',-0.305,-0.130
'5:03.739',-0.275,-0.110
'5:03.742',-0.255,-0.115
'5:03.744',-0.255,-0.115
'5:03.747',-0.255,-0.115
'5:03.750',-0.230,-0.115
'5:03.753',-0.200,-0.095
'5:03.756',-0.180,-0.095
'5:03.758',-0.175,-0.110
'5:03.761',-0.165,-0.145
'5:03.764',-0.150,-0.155
'5:03.767',-0.115,-0.155
'5:03.769',-0.075,-0.150
'5:03.772',-0.030,-0.155
'5:03.775',0.040,-0.175
'5:03.778',0.075,-0.220
'5:03.781',0.105,-0.260
'5:03.783',0.145,-0.260
'5:03.786',0.245,-0.280
'5:03.789',0.340,-0.285
'5:03.792',0.425,-0.345
'5:03.794',0.520,-0.395
'5:03.797',0.600,-0.445
'5:03.800',0.710,-0.480
'5:03.803',0.850,-0.490
'5:03.806',1.025,-0.540
'5:03.808',1.240,-0.600
'5:03.811',1.455,-0.685
'5:03.814',1.655,-0.730
'5:03.817',1.800,-0.755
'5:03.819',1.885,-0.710
'5:03.822',1.855,-0.625
'5:03.825',1.755,-0.530
'5:03.828',1.610,-0.490
'5:03.831',1.455,-0.405
'5:03.833',1.365,-0.335
'5:03.836',1.325,-0.285
'5:03.839',1.305,-0.265
'5:03.842',1.255,-0.290
'5:03.844',1.125,-0.305
'5:03.847',0.940,-0.295
'5:03.850',0.730,-0.265
'5:03.853',0.470,-0.235
'5:03.856',0.185,-0.240
'5:03.858',-0.105,-0.280
'5:03.861',-0.320,-0.325
'5:03.864',-0.440,-0.305
'5:03.867',-0.490,-0.255
'5:03.869',-0.545,-0.185
'5:03.872',-0.615,-0.110
'5:03.875',-0.640,-0.070
'5:03.878',-0.660,-0.065
'5:03.881',-0.695,-0.045
'5:03.883',-0.725,-0.015
'5:03.886',-0.735,0.000
'5:03.889',-0.745,0.035
'5:03.892',-0.770,0.035
'5:03.894',-0.805,0.035
'5:03.897',-0.825,0.030
'5:03.900',-0.840,0.030
'5:03.903',-0.835,0.050
'5:03.906',-0.845,0.060
'5:03.908',-0.860,0.075
'5:03.911',-0.885,0.075
'5:03.914',-0.915,0.080
'5:03.917',-0.930,0.095
'5:03.919',-0.930,0.125
'5:03.922',-0.920,0.130
'5:03.925',-0.930,0.125
'5:03.928',-0.955,0.110
'5:03.931',-0.980,0.115
'5:03.933',-0.995,0.140
'5:03.936',-0.995,0.170
'5:03.939',-0.985,0.195
'5:03.942',-0.985,0.190
'5:03.944',-1.010,0.170
'5:03.947',-1.030,0.185
'5:03.950',-1.035,0.180
'5:03.953',-1.030,0.200
'5:03.956',-1.015,0.220
'5:03.958',-1.025,0.200
'5:03.961',-1.040,0.210
'5:03.964',-1.065,0.205
'5:03.967',-1.070,0.215
'5:03.969',-1.065,0.225
'5:03.972',-1.055,0.220
'5:03.975',-1.060,0.195
'5:03.978',-1.065,0.160
'5:03.981',-1.090,0.125
'5:03.983',-1.115,0.115
'5:03.986',-1.105,0.105
'5:03.989',-1.100,0.120
'5:03.992',-1.115,0.100
'5:03.994',-1.160,0.080
'5:03.997',-1.200,0.065
'5:04.000',-1.210,0.080
'5:04.003',-1.195,0.110
'5:04.006',-1.180,0.125
'5:04.008',-1.200,0.120
'5:04.011',-1.230,0.130
'5:04.014',-1.235,0.120
'5:04.017',-1.220,0.135
'5:04.019',-1.200,0.165
'5:04.022',-1.185,0.185
'5:04.025',-1.180,0.190
'5:04.028',-1.175,0.190
'5:04.031',-1.180,0.185
'5:04.033',-1.180,0.220
'5:04.036',-1.135,0.235
'5:04.039',-1.090,0.245
'5:04.042',-1.060,0.245
'5:04.044',-1.060,0.240
'5:04.047',-1.025,0.230
'5:04.050',-0.990,0.240
'5:04.053',-0.940,0.260
'5:04.056',-0.870,0.280
'5:04.058',-0.830,0.275
'5:04.061',-0.800,0.245
'5:04.064',-0.760,0.250
'5:04.067',-0.715,0.250
'5:04.069',-0.650,0.250
'5:04.072',-0.590,0.250
'5:04.075',-0.550,0.240
'5:04.078',-0.500,0.240
'5:04.081',-0.475,0.215
'5:04.083',-0.445,0.245
'5:04.086',-0.400,0.230
'5:04.089',-0.355,0.235
'5:04.092',-0.300,0.200
'5:04.094',-0.290,0.160
'5:04.097',-0.280,0.155
'5:04.100',-0.265,0.145
'5:04.103',-0.220,0.135
'5:04.106',-0.175,0.130
'5:04.108',-0.175,0.105
'5:04.111',-0.160,0.080
'5:04.114',-0.160,0.050
'5:04.117',-0.125,0.045
'5:04.119',-0.110,0.025
'5:04.122',-0.095,0.010
'5:04.125',-0.090,-0.025
'5:04.128',-0.090,-0.060
'5:04.131',-0.100,-0.080
'5:04.133',-0.110,-0.070
'5:04.136',-0.085,-0.055
'5:04.139',-0.070,-0.060
'5:04.142',-0.070,-0.060
'5:04.144',-0.080,-0.080
'5:04.147',-0.110,-0.075
'5:04.150',-0.070,-0.050
'5:04.153',-0.055,-0.040
'5:04.156',-0.035,-0.025
'5:04.158',-0.030,-0.030
'5:04.161',-0.045,-0.040
'5:04.164',-0.040,-0.040
'5:04.167',-0.015,-0.015
'5:04.169',0.005,-0.005
'5:04.172',0.035,0.005
'5:04.175',0.035,0.005
'5:04.178',0.050,0.005
'5:04.181',0.045,0.010
'5:04.183',0.075,0.050
'5:04.186',0.140,0.090
'5:04.189',0.215,0.140
'5:04.192',0.315,0.155
'5:04.194',0.430,0.185
'5:04.197',0.565,0.210
'5:04.200',0.710,0.255
'5:04.203',0.840,0.330
'5:04.206',0.915,0.365
'5:04.208',0.890,0.400
'5:04.211',0.825,0.440
'5:04.214',0.615,0.490
'5:04.217',0.285,0.565
'5:04.219',-0.210,0.675
'5:04.222',-0.775,0.785
'5:04.225',-1.320,0.890
'5:04.228',-1.630,0.960
'5:04.231',-1.675,0.995
'5:04.233',-1.570,1.065
'5:04.236',-1.455,1.175
'5:04.239',-1.375,1.275
'5:04.242',-1.325,1.345
'5:04.244',-1.275,1.360
'5:04.247',-1.245,1.380
'5:04.250',-1.210,1.385
'5:04.253',-1.160,1.395
'5:04.256',-1.095,1.390
'5:04.258',-1.010,1.340
'5:04.261',-0.915,1.235
'5:04.264',-0.775,1.055
'5:04.267',-0.615,0.860
'5:04.269',-0.470,0.660
'5:04.272',-0.345,0.460
'5:04.275',-0.265,0.265
'5:04.278',-0.225,0.110
'5:04.281',-0.205,-0.025
'5:04.283',-0.175,-0.110
'5:04.286',-0.130,-0.165
'5:04.289',-0.100,-0.215
'5:04.292',-0.085,-0.265
'5:04.294',-0.100,-0.295
'5:04.297',-0.075,-0.335
'5:04.300',-0.055,-0.360
'5:04.303',-0.020,-0.345
'5:04.306',0.005,-0.365
'5:04.308',0.010,-0.375
'5:04.311',0.020,-0.415
'5:04.314',0.035,-0.435
'5:04.317',0.040,-0.460
'5:04.319',0.060,-0.445
'5:04.322',0.095,-0.445
'5:04.325',0.120,-0.480
'5:04.328',0.115,-0.480
'5:04.331',0.115,-0.520
'5:04.333',0.150,-0.520
'5:04.336',0.180,-0.520
'5:04.339',0.215,-0.520
'5:04.342',0.230,-0.535
'5:04.344',0.235,-0.565
'5:04.347',0.265,-0.590
'5:04.350',0.285,-0.590
'5:04.353',0.315,-0.600
'5:04.356',0.360,-0.595
'5:04.358',0.385,-0.620
'5:04.361',0.415,-0.655
'5:04.364',0.415,-0.665
'5:04.367',0.440,-0.675
'5:04.369',0.485,-0.670
'5:04.372',0.540,-0.670
'5:04.375',0.555,-0.685
'5:04.378',0.575,-0.735
'5:04.381',0.615,-0.745
'5:04.383',0.645,-0.765
'5:04.386',0.655,-0.755
'5:04.389',0.695,-0.760
'5:04.392',0.720,-0.790
'5:04.394',0.735,-0.800
'5:04.397',0.745,-0.820
'5:04.400',0.770,-0.830
'5:04.403',0.810,-0.845
'5:04.406',0.830,-0.850
'5:04.408',0.835,-0.880
'5:04.411',0.830,-0.890
'5:04.414',0.825,-0.885
'5:04.417',0.810,-0.875
'5:04.419',0.805,-0.855
'5:04.422',0.780,-0.820
'5:04.425',0.760,-0.840
'5:04.428',0.730,-0.830
'5:04.431',0.705,-0.820
'5:04.433',0.655,-0.785
'5:04.436',0.640,-0.760
'5:04.439',0.620,-0.740
'5:04.442',0.600,-0.720
'5:04.444',0.550,-0.715
'5:04.447',0.505,-0.690
'5:04.450',0.470,-0.670
'5:04.453',0.450,-0.645
'5:04.456',0.460,-0.600
'5:04.458',0.450,-0.605
'5:04.461',0.420,-0.600
'5:04.464',0.405,-0.585
'5:04.467',0.380,-0.540
'5:04.469',0.395,-0.515
'5:04.472',0.440,-0.485
'5:04.475',0.465,-0.465
'5:04.478',0.485,-0.475
'5:04.481',0.490,-0.465
'5:04.483',0.545,-0.445
'5:04.486',0.660,-0.445
'5:04.489',0.755,-0.460
'5:04.492',0.825,-0.470
'5:04.494',0.885,-0.510
'5:04.497',0.995,-0.525
'5:04.500',1.155,-0.535
'5:04.503',1.370,-0.595
'5:04.506',1.580,-0.660
'5:04.508',1.800,-0.755
'5:04.511',1.980,-0.865
'5:04.514',2.075,-0.920
'5:04.517',2.085,-0.925
'5:04.519',2.085,-0.895
'5:04.522',2.080,-0.865
'5:04.525',2.095,-0.820
'5:04.528',2.080,-0.755
'5:04.531',2.075,-0.685
'5:04.533',2.085,-0.605
'5:04.536',2.130,-0.530
'5:04.539',2.120,-0.460
'5:04.542',2.055,-0.410
'5:04.544',1.930,-0.395
'5:04.547',1.750,-0.415
'5:04.550',1.500,-0.445
'5:04.553',1.145,-0.480
'5:04.556',0.685,-0.535
'5:04.558',0.205,-0.635
'5:04.561',-0.275,-0.680
'5:04.564',-0.660,-0.690
'5:04.567',-0.910,-0.620
'5:04.569',-0.985,-0.520
'5:04.572',-0.955,-0.390
'5:04.575',-0.880,-0.285
'5:04.578',-0.840,-0.175
'5:04.581',-0.860,-0.075
'5:04.583',-0.890,0.010
'5:04.586',-0.840,0.100
'5:04.589',-0.795,0.140
'5:04.592',-0.825,0.175
'5:04.594',-0.875,0.170
'5:04.597',-0.910,0.205
'5:04.600',-0.925,0.240
'5:04.603',-0.925,0.260
'5:04.606',-0.955,0.285
'5:04.608',-0.975,0.290
'5:04.611',-0.995,0.295
'5:04.614',-1.030,0.315
'5:04.617',-1.075,0.330
'5:04.619',-1.090,0.355
'5:04.622',-1.095,0.370
'5:04.625',-1.125,0.385
'5:04.628',-1.170,0.380
'5:04.631',-1.205,0.380
'5:04.633',-1.235,0.415
'5:04.636',-1.250,0.430
'5:04.639',-1.265,0.445
'5:04.642',-1.300,0.450
'5:04.644',-1.320,0.430
'5:04.647',-1.350,0.455
'5:04.650',-1.385,0.470
'5:04.653',-1.400,0.505
'5:04.656',-1.430,0.520
'5:04.658',-1.440,0.515
'5:04.661',-1.485,0.525
'5:04.664',-1.545,0.560
'5:04.667',-1.575,0.570
'5:04.669',-1.600,0.610
'5:04.672',-1.625,0.645
'5:04.675',-1.640,0.660
'5:04.678',-1.665,0.660
'5:04.681',-1.675,0.660
'5:04.683',-1.675,0.675
'5:04.686',-1.675,0.685
'5:04.689',-1.640,0.700
'5:04.692',-1.630,0.690
'5:04.694',-1.615,0.680
'5:04.697',-1.610,0.695
'5:04.700',-1.580,0.730
'5:04.703',-1.515,0.765
'5:04.706',-1.455,0.765
'5:04.708',-1.435,0.755
'5:04.711',-1.400,0.755
'5:04.714',-1.345,0.750
'5:04.717',-1.275,0.770
'5:04.719',-1.190,0.795
'5:04.722',-1.110,0.805
'5:04.725',-1.035,0.775
'5:04.728',-0.945,0.760
'5:04.731',-0.875,0.745
'5:04.733',-0.770,0.750
'5:04.736',-0.675,0.765
'5:04.739',-0.580,0.755
'5:04.742',-0.500,0.725
'5:04.744',-0.435,0.715
'5:04.747',-0.350,0.685
'5:04.750',-0.270,0.675
'5:04.753',-0.205,0.670
'5:04.756',-0.140,0.640
'5:04.758',-0.100,0.600
'5:04.761',-0.075,0.570
'5:04.764',-0.060,0.530
'5:04.767',-0.060,0.510
'5:04.769',-0.020,0.485
'5:04.772',0.000,0.450
'5:04.775',-0.020,0.400
'5:04.778',-0.020,0.355
'5:04.781',-0.035,0.310
'5:04.783',-0.040,0.280
'5:04.786',-0.065,0.255
'5:04.789',-0.070,0.240
'5:04.792',-0.100,0.195
'5:04.794',-0.115,0.165
'5:04.797',-0.155,0.140
'5:04.800',-0.160,0.145
'5:04.803',-0.150,0.155
'5:04.806',-0.140,0.145
'5:04.808',-0.150,0.130
'5:04.811',-0.185,0.085
'5:04.814',-0.185,0.065
'5:04.817',-0.180,0.065
'5:04.819',-0.180,0.070
'5:04.822',-0.170,0.050
'5:04.825',-0.180,0.030
'5:04.828',-0.175,0.000
'5:04.831',-0.200,0.000
'5:04.833',-0.200,0.000
'5:04.836',-0.195,0.015
'5:04.839',-0.180,0.010
'5:04.842',-0.185,0.005
'5:04.844',-0.200,-0.020
'5:04.847',-0.200,-0.015
'5:04.850',-0.200,-0.010
'5:04.853',-0.180,0.000
'5:04.856',-0.150,0.020
'5:04.858',-0.135,0.005
'5:04.861',-0.135,-0.010
'5:04.864',-0.155,-0.015
'5:04.867',-0.145,-0.020
'5:04.869',-0.110,0.000
'5:04.872',-0.085,0.005
'5:04.875',-0.080,-0.015
'5:04.878',-0.070,-0.030
'5:04.881',-0.070,-0.045
'5:04.883',-0.015,-0.040
'5:04.886',0.025,-0.045
'5:04.889',0.095,-0.060
'5:04.892',0.180,-0.125
'5:04.894',0.255,-0.185
'5:04.897',0.370,-0.245
'5:04.900',0.485,-0.290
'5:04.903',0.635,-0.320
'5:04.906',0.790,-0.385
'5:04.908',0.940,-0.475
'5:04.911',1.110,-0.585
'5:04.914',1.330,-0.685
'5:04.917',1.575,-0.805
'5:04.919',1.800,-0.880
'5:04.922',1.970,-0.975
'5:04.925',2.025,-1.035
'5:04.928',2.015,-1.065
'5:04.931',1.985,-1.035
'5:04.933',1.965,-0.980
'5:04.936',1.980,-0.920
'5:04.939',2.020,-0.860
'5:04.942',2.035,-0.810
'5:04.944',2.030,-0.790
'5:04.947',2.015,-0.795
'5:04.950',2.000,-0.765
'5:04.953',1.930,-0.740
'5:04.956',1.785,-0.740
'5:04.958',1.495,-0.770
'5:04.961',1.070,-0.815
'5:04.964',0.535,-0.835
'5:04.967',-0.030,-0.850
'5:04.969',-0.525,-0.875
'5:04.972',-0.895,-0.840
'5:04.975',-1.155,-0.810
'5:04.978',-1.325,-0.745
'5:04.981',-1.365,-0.640
'5:04.983',-1.290,-0.510
'5:04.986',-1.140,-0.390
'5:04.989',-1.010,-0.280
'5:04.992',-0.950,-0.160
'5:04.994',-0.935,-0.070
'5:04.997',-0.915,0.030
'5:05.000',-0.860,0.085
'5:05.003',-0.830,0.155
'5:05.006',-0.815,0.195
'5:05.008',-0.845,0.210
'5:05.011',-0.880,0.230
'5:05.014',-0.890,0.260
'5:05.017',-0.900,0.285
'5:05.019',-0.920,0.330
'5:05.022',-0.915,0.355
'5:05.025',-0.930,0.365
'5:05.028',-0.955,0.360
'5:05.031',-0.975,0.375
'5:05.033',-1.000,0.390
'5:05.036',-1.005,0.390
'5:05.039',-0.990,0.415
'5:05.042',-0.995,0.395
'5:05.044',-1.025,0.385
'5:05.047',-1.075,0.385
'5:05.050',-1.080,0.395
'5:05.053',-1.075,0.405
'5:05.056',-1.095,0.420
'5:05.058',-1.115,0.430
'5:05.061',-1.165,0.420
'5:05.064',-1.190,0.420
'5:05.067',-1.195,0.440
'5:05.069',-1.205,0.445
'5:05.072',-1.225,0.475
'5:05.075',-1.260,0.465
'5:05.078',-1.280,0.470
'5:05.081',-1.300,0.455
'5:05.083',-1.315,0.475
'5:05.086',-1.325,0.480
'5:05.089',-1.325,0.465
'5:05.092',-1.335,0.465
'5:05.094',-1.355,0.440
'5:05.097',-1.380,0.445
'5:05.100',-1.395,0.450
'5:05.103',-1.380,0.465
'5:05.106',-1.365,0.460
'5:05.108',-1.385,0.465
'5:05.111',-1.405,0.440
'5:05.114',-1.405,0.445
'5:05.117',-1.390,0.445
'5:05.119',-1.380,0.450
'5:05.122',-1.345,0.470
'5:05.125',-1.350,0.470
'5:05.128',-1.335,0.470
'5:05.131',-1.295,0.465
'5:05.133',-1.250,0.475
'5:05.136',-1.200,0.520
'5:05.139',-1.135,0.520
'5:05.142',-1.075,0.515
'5:05.144',-1.025,0.505
'5:05.147',-0.975,0.510
'5:05.150',-0.940,0.510
'5:05.153',-0.835,0.510
'5:05.156',-0.745,0.510
'5:05.158',-0.680,0.495
'5:05.161',-0.615,0.470
'5:05.164',-0.540,0.460
'5:05.167',-0.465,0.450
'5:05.169',-0.385,0.465
'5:05.172',-0.300,0.465
'5:05.175',-0.240,0.440
'5:05.178',-0.195,0.405
'5:05.181',-0.150,0.385
'5:05.183',-0.095,0.395
'5:05.186',-0.040,0.405
'5:05.189',0.005,0.380
'5:05.192',0.030,0.370
'5:05.194',0.035,0.350
'5:05.197',0.030,0.330
'5:05.200',0.020,0.330
'5:05.203',0.025,0.300
'5:05.206',0.015,0.295
'5:05.208',-0.030,0.280
'5:05.211',-0.060,0.255
'5:05.214',-0.080,0.230
'5:05.217',-0.090,0.215
'5:05.219',-0.085,0.220
'5:05.222',-0.095,0.210
'5:05.225',-0.105,0.175
'5:05.228',-0.125,0.140
'5:05.231',-0.150,0.115
'5:05.233',-0.165,0.090
'5:05.236',-0.140,0.065
'5:05.239',-0.115,0.060
'5:05.242',-0.120,0.020
'5:05.244',-0.140,-0.010
'5:05.247',-0.160,-0.040
'5:05.250',-0.155,-0.030
'5:05.253',-0.120,-0.030
'5:05.256',-0.095,-0.035
'5:05.258',-0.095,-0.055
'5:05.261',-0.085,-0.105
'5:05.264',-0.075,-0.095
'5:05.267',-0.055,-0.090
'5:05.269',-0.020,-0.085
'5:05.272',0.020,-0.085
'5:05.275',0.075,-0.115
'5:05.278',0.125,-0.155
'5:05.281',0.165,-0.175
'5:05.283',0.240,-0.200
'5:05.286',0.385,-0.220
'5:05.289',0.505,-0.255
'5:05.292',0.600,-0.315
'5:05.294',0.725,-0.365
'5:05.297',0.860,-0.415
'5:05.300',1.025,-0.455
'5:05.303',1.225,-0.515
'5:05.306',1.450,-0.600
'5:05.308',1.685,-0.715
'5:05.311',1.875,-0.830
'5:05.314',1.955,-0.915
'5:05.317',1.965,-0.940
'5:05.319',1.935,-0.935
'5:05.322',1.930,-0.910
'5:05.325',1.900,-0.870
'5:05.328',1.870,-0.830
'5:05.331',1.870,-0.785
'5:05.333',1.900,-0.750
'5:05.336',1.950,-0.715
'5:05.339',1.940,-0.690
'5:05.342',1.850,-0.665
'5:05.344',1.690,-0.685
'5:05.347',1.440,-0.710
'5:05.350',1.085,-0.730
'5:05.353',0.655,-0.745
'5:05.356',0.155,-0.760
'5:05.358',-0.355,-0.820
'5:05.361',-0.785,-0.855
'5:05.364',-1.105,-0.820
'5:05.367',-1.340,-0.725
'5:05.369',-1.395,-0.595
'5:05.372',-1.325,-0.445
'5:05.375',-1.200,-0.310
'5:05.378',-1.085,-0.195
'5:05.381',-1.030,-0.090
'5:05.383',-0.965,0.000
'5:05.386',-0.925,0.070
'5:05.389',-0.880,0.095
'5:05.392',-0.885,0.085
'5:05.394',-0.925,0.065
'5:05.397',-0.950,0.060
'5:05.400',-0.975,0.070
'5:05.403',-0.975,0.105
'5:05.406',-0.985,0.100
'5:05.408',-0.990,0.110
'5:05.411',-1.010,0.115
'5:05.414',-1.045,0.125
'5:05.417',-1.055,0.170
'5:05.419',-1.050,0.195
'5:05.422',-1.055,0.225
'5:05.425',-1.105,0.235
'5:05.428',-1.115,0.235
'5:05.431',-1.135,0.250
'5:05.433',-1.165,0.280
'5:05.436',-1.170,0.315
'5:05.439',-1.170,0.330
'5:05.442',-1.195,0.340
'5:05.444',-1.225,0.330
'5:05.447',-1.250,0.365
'5:05.450',-1.265,0.380
'5:05.453',-1.275,0.405
'5:05.456',-1.265,0.420
'5:05.458',-1.280,0.415
'5:05.461',-1.320,0.405
'5:05.464',-1.350,0.395
'5:05.467',-1.355,0.425
'5:05.469',-1.360,0.440
'5:05.472',-1.360,0.440
'5:05.475',-1.385,0.450
'5:05.478',-1.400,0.440
'5:05.481',-1.410,0.450
'5:05.483',-1.430,0.460
'5:05.486',-1.420,0.495
'5:05.489',-1.410,0.485
'5:05.492',-1.410,0.535
'5:05.494',-1.435,0.510
'5:05.497',-1.460,0.525
'5:05.500',-1.465,0.550
'5:05.503',-1.460,0.595
'5:05.506',-1.425,0.620
'5:05.508',-1.405,0.610
'5:05.511',-1.385,0.600
'5:05.514',-1.370,0.615
'5:05.517',-1.315,0.610
'5:05.519',-1.245,0.640
'5:05.522',-1.185,0.635
'5:05.525',-1.145,0.610
'5:05.528',-1.110,0.580
'5:05.531',-1.055,0.575
'5:05.533',-0.975,0.560
'5:05.536',-0.890,0.570
'5:05.539',-0.795,0.540
'5:05.542',-0.735,0.515
'5:05.544',-0.670,0.460
'5:05.547',-0.615,0.425
'5:05.550',-0.530,0.420
'5:05.553',-0.455,0.425
'5:05.556',-0.385,0.405
'5:05.558',-0.330,0.380
'5:05.561',-0.250,0.335
'5:05.564',-0.195,0.310
'5:05.567',-0.150,0.285
'5:05.569',-0.110,0.285
'5:05.572',-0.045,0.280
'5:05.575',-0.020,0.265
'5:05.578',-0.005,0.225
'5:05.581',-0.020,0.225
'5:05.583',-0.025,0.225
'5:05.586',-0.005,0.230
'5:05.589',0.020,0.250
'5:05.592',0.005,0.195
'5:05.594',-0.015,0.185
'5:05.597',-0.045,0.175
'5:05.600',-0.050,0.170
'5:05.603',-0.035,0.160
'5:05.606',-0.025,0.150
'5:05.608',-0.050,0.120
'5:05.611',-0.060,0.070
'5:05.614',-0.065,0.050
'5:05.617',-0.080,0.050
'5:05.619',-0.065,0.045
'5:05.622',-0.025,0.020
'5:05.625',0.015,-0.015
'5:05.628',0.025,-0.055
'5:05.631',0.030,-0.105
'5:05.633',0.095,-0.135
'5:05.636',0.195,-0.175
'5:05.639',0.335,-0.235
'5:05.642',0.445,-0.315
'5:05.644',0.535,-0.390
'5:05.647',0.625,-0.450
'5:05.650',0.805,-0.515
'5:05.653',0.995,-0.560
'5:05.656',1.215,-0.640
'5:05.658',1.440,-0.760
'5:05.661',1.680,-0.895
'5:05.664',1.865,-1.000
'5:05.667',1.955,-1.055
'5:05.669',1.945,-1.065
'5:05.672',1.920,-1.020
'5:05.675',1.880,-0.985
'5:05.678',1.845,-0.965
'5:05.681',1.825,-0.920
'5:05.683',1.840,-0.855
'5:05.686',1.875,-0.815
'5:05.689',1.890,-0.820
'5:05.692',1.795,-0.800
'5:05.694',1.620,-0.780
'5:05.697',1.340,-0.770
'5:05.700',0.945,-0.780
'5:05.703',0.415,-0.775
'5:05.706',-0.150,-0.795
'5:05.708',-0.700,-0.820
'5:05.711',-1.065,-0.860
'5:05.714',-1.360,-0.850
'5:05.717',-1.600,-0.785
'5:05.719',-1.700,-0.675
'5:05.722',-1.660,-0.545
'5:05.725',-1.540,-0.435
'5:05.728',-1.395,-0.320
'5:05.731',-1.295,-0.210
'5:05.733',-1.195,-0.070
'5:05.736',-1.125,0.050
'5:05.739',-1.055,0.125
'5:05.742',-1.015,0.205
'5:05.744',-1.020,0.230
'5:05.747',-1.055,0.255
'5:05.750',-1.075,0.290
'5:05.753',-1.080,0.325
'5:05.756',-1.090,0.345
'5:05.758',-1.110,0.350
'5:05.761',-1.125,0.335
'5:05.764',-1.165,0.345
'5:05.767',-1.195,0.360
'5:05.769',-1.200,0.380
'5:05.772',-1.175,0.390
'5:05.775',-1.190,0.385
'5:05.778',-1.245,0.400
'5:05.781',-1.285,0.390
'5:05.783',-1.305,0.420
'5:05.786',-1.285,0.415
'5:05.789',-1.310,0.435
'5:05.792',-1.315,0.415
'5:05.794',-1.340,0.415
'5:05.797',-1.360,0.420
'5:05.800',-1.380,0.450
'5:05.803',-1.385,0.495
'5:05.806',-1.385,0.490
'5:05.808',-1.410,0.500
'5:05.811',-1.460,0.505
'5:05.814',-1.480,0.500
'5:05.817',-1.485,0.505
'5:05.819',-1.500,0.545
'5:05.822',-1.505,0.540
'5:05.825',-1.505,0.560
'5:05.828',-1.510,0.550
'5:05.831',-1.515,0.570
'5:05.833',-1.505,0.565
'5:05.836',-1.480,0.575
'5:05.839',-1.455,0.565
'5:05.842',-1.440,0.560
'5:05.844',-1.435,0.550
'5:05.847',-1.420,0.540
'5:05.850',-1.380,0.530
'5:05.853',-1.315,0.540
'5:05.856',-1.260,0.540
'5:05.858',-1.200,0.520
'5:05.861',-1.140,0.500
'5:05.864',-1.085,0.510
'5:05.867',-1.010,0.500
'5:05.869',-0.930,0.505
'5:05.872',-0.820,0.505
'5:05.875',-0.730,0.470
'5:05.878',-0.680,0.455
'5:05.881',-0.620,0.450
'5:05.883',-0.520,0.445
'5:05.886',-0.430,0.465
'5:05.889',-0.345,0.460
'5:05.892',-0.290,0.435
'5:05.894',-0.255,0.425
'5:05.897',-0.200,0.405
'5:05.900',-0.170,0.410
'5:05.903',-0.120,0.395
'5:05.906',-0.070,0.370
'5:05.908',-0.045,0.335
'5:05.911',-0.040,0.310
'5:05.914',-0.050,0.280
'5:05.917',-0.070,0.265
'5:05.919',-0.035,0.250
'5:05.922',-0.005,0.225
'5:05.925',0.000,0.165
'5:05.928',0.000,0.110
'5:05.931',0.025,0.080
'5:05.933',0.080,0.025
'5:05.936',0.170,-0.010
'5:05.939',0.260,-0.080
'5:05.942',0.355,-0.180
'5:05.944',0.495,-0.265
'5:05.947',0.635,-0.365
'5:05.950',0.760,-0.435
'5:05.953',0.915,-0.475
'5:05.956',1.090,-0.545
'5:05.958',1.265,-0.650
'5:05.961',1.460,-0.785
'5:05.964',1.680,-0.910
'5:05.967',1.885,-1.010
'5:05.969',1.985,-1.070
'5:05.972',1.970,-1.110
'5:05.975',1.875,-1.125
'5:05.978',1.780,-1.090
'5:05.981',1.705,-1.045
'5:05.983',1.665,-0.995
'5:05.986',1.660,-0.935
'5:05.989',1.675,-0.895
'5:05.992',1.635,-0.860
'5:05.994',1.435,-0.815
'5:05.997',1.110,-0.740
'5:06.000',0.665,-0.700
'5:06.003',0.175,-0.670
'5:06.006',-0.365,-0.665
'5:06.008',-0.920,-0.650
'5:06.011',-1.370,-0.660
'5:06.014',-1.665,-0.655
'5:06.017',-1.830,-0.600
'5:06.019',-1.855,-0.495
'5:06.022',-1.745,-0.405
'5:06.025',-1.575,-0.295
'5:06.028',-1.460,-0.200
'5:06.031',-1.390,-0.120
'5:06.033',-1.330,-0.010
'5:06.036',-1.255,0.080
'5:06.039',-1.190,0.150
'5:06.042',-1.145,0.195
'5:06.044',-1.165,0.225
'5:06.047',-1.190,0.240
'5:06.050',-1.205,0.275
'5:06.053',-1.200,0.320
'5:06.056',-1.190,0.340
'5:06.058',-1.225,0.340
'5:06.061',-1.260,0.350
'5:06.064',-1.270,0.355
'5:06.067',-1.275,0.375
'5:06.069',-1.270,0.410
'5:06.072',-1.275,0.420
'5:06.075',-1.290,0.430
'5:06.078',-1.325,0.410
'5:06.081',-1.335,0.415
'5:06.083',-1.360,0.445
'5:06.086',-1.365,0.455
'5:06.089',-1.360,0.465
'5:06.092',-1.370,0.460
'5:06.094',-1.385,0.435
'5:06.097',-1.415,0.440
'5:06.100',-1.440,0.440
'5:06.103',-1.430,0.445
'5:06.106',-1.425,0.435
'5:06.108',-1.430,0.390
'5:06.111',-1.445,0.375
'5:06.114',-1.465,0.370
'5:06.117',-1.485,0.365
'5:06.119',-1.465,0.390
'5:06.122',-1.465,0.390
'5:06.125',-1.495,0.375
'5:06.128',-1.505,0.375
'5:06.131',-1.530,0.365
'5:06.133',-1.525,0.385
'5:06.136',-1.515,0.410
'5:06.139',-1.505,0.420
'5:06.142',-1.525,0.420
'5:06.144',-1.530,0.400
'5:06.147',-1.550,0.400
'5:06.150',-1.540,0.420
'5:06.153',-1.515,0.470
'5:06.156',-1.485,0.465
'5:06.158',-1.465,0.450
'5:06.161',-1.455,0.455
'5:06.164',-1.440,0.455
'5:06.167',-1.385,0.460
'5:06.169',-1.325,0.485
'5:06.172',-1.275,0.465
'5:06.175',-1.245,0.465
'5:06.178',-1.185,0.435
'5:06.181',-1.125,0.420
'5:06.183',-1.055,0.425
'5:06.186',-0.980,0.420
'5:06.189',-0.910,0.405
'5:06.192',-0.835,0.370
'5:06.194',-0.755,0.365
'5:06.197',-0.700,0.335
'5:06.200',-0.640,0.320
'5:06.203',-0.550,0.325
'5:06.206',-0.480,0.335
'5:06.208',-0.440,0.305
'5:06.211',-0.405,0.270
'5:06.214',-0.375,0.260
'5:06.217',-0.335,0.265
'5:06.219',-0.305,0.275
'5:06.222',-0.275,0.255
'5:06.225',-0.285,0.255
'5:06.228',-0.310,0.230
'5:06.231',-0.315,0.225
'5:06.233',-0.325,0.210
'5:06.236',-0.325,0.235
'5:06.239',-0.325,0.225
'5:06.242',-0.350,0.225
'5:06.244',-0.380,0.210
'5:06.247',-0.410,0.205
'5:06.250',-0.440,0.195
'5:06.253',-0.410,0.200
'5:06.256',-0.395,0.180
'5:06.258',-0.405,0.125
'5:06.261',-0.440,0.095
'5:06.264',-0.450,0.060
'5:06.267',-0.450,0.055
'5:06.269',-0.435,0.035
'5:06.272',-0.445,0.010
'5:06.275',-0.435,-0.025
'5:06.278',-0.445,-0.045
'5:06.281',-0.470,-0.065
'5:06.283',-0.460,-0.065
'5:06.286',-0.445,-0.060
'5:06.289',-0.425,-0.055
'5:06.292',-0.430,-0.065
'5:06.294',-0.445,-0.070
'5:06.297',-0.465,-0.060
'5:06.300',-0.475,-0.035
'5:06.303',-0.450,-0.025
'5:06.306',-0.440,0.000
'5:06.308',-0.455,-0.010
'5:06.311',-0.470,0.000
'5:06.314',-0.475,0.010
'5:06.317',-0.495,0.040
'5:06.319',-0.505,0.065
'5:06.322',-0.470,0.065
'5:06.325',-0.465,0.075
'5:06.328',-0.465,0.065
'5:06.331',-0.485,0.040
'5:06.333',-0.485,0.055
'5:06.336',-0.455,0.075
'5:06.339',-0.440,0.055
'5:06.342',-0.425,0.040
'5:06.344',-0.455,0.020
'5:06.347',-0.440,0.010
'5:06.350',-0.405,0.005
'5:06.353',-0.390,-0.005
'5:06.356',-0.365,0.000
'5:06.358',-0.370,-0.030
'5:06.361',-0.355,-0.065
'5:06.364',-0.320,-0.080
'5:06.367',-0.290,-0.060
'5:06.369',-0.245,-0.070
'5:06.372',-0.195,-0.095
'5:06.375',-0.145,-0.130
'5:06.378',-0.095,-0.175
'5:06.381',-0.030,-0.215
'5:06.383',0.050,-0.260
'5:06.386',0.165,-0.300
'5:06.389',0.285,-0.355
'5:06.392',0.380,-0.405
'5:06.394',0.450,-0.475
'5:06.397',0.540,-0.525
'5:06.400',0.685,-0.580
'5:06.403',0.865,-0.620
'5:06.406',1.075,-0.705
'5:06.408',1.290,-0.810
'5:06.411',1.535,-0.910
'5:06.414',1.680,-0.965
'5:06.417',1.775,-1.000
'5:06.419',1.780,-1.005
'5:06.422',1.745,-0.970
'5:06.425',1.705,-0.950
'5:06.428',1.665,-0.925
'5:06.431',1.650,-0.870
'5:06.433',1.685,-0.820
'5:06.436',1.740,-0.775
'5:06.439',1.775,-0.755
'5:06.442',1.745,-0.745
'5:06.444',1.625,-0.735
'5:06.447',1.405,-0.680
'5:06.450',1.055,-0.650
'5:06.453',0.605,-0.635
'5:06.456',0.085,-0.615
'5:06.458',-0.465,-0.635
'5:06.461',-0.910,-0.625
'5:06.464',-1.245,-0.645
'5:06.467',-1.535,-0.600
'5:06.469',-1.730,-0.515
'5:06.472',-1.765,-0.420
'5:06.475',-1.710,-0.345
'5:06.478',-1.645,-0.280
'5:06.481',-1.535,-0.220
'5:06.483',-1.440,-0.120
'5:06.486',-1.320,-0.035
'5:06.489',-1.250,0.035
'5:06.492',-1.185,0.090
'5:06.494',-1.140,0.115
'5:06.497',-1.120,0.150
'5:06.500',-1.120,0.185
'5:06.503',-1.125,0.205
'5:06.506',-1.120,0.220
'5:06.508',-1.145,0.230
'5:06.511',-1.175,0.220
'5:06.514',-1.185,0.230
'5:06.517',-1.195,0.255
'5:06.519',-1.195,0.260
'5:06.522',-1.195,0.275
'5:06.525',-1.205,0.270
'5:06.528',-1.225,0.255
'5:06.531',-1.265,0.265
'5:06.533',-1.275,0.300
'5:06.536',-1.260,0.325
'5:06.539',-1.250,0.335
'5:06.542',-1.275,0.335
'5:06.544',-1.305,0.320
'5:06.547',-1.315,0.320
'5:06.550',-1.330,0.350
'5:06.553',-1.340,0.360
'5:06.556',-1.355,0.370
'5:06.558',-1.370,0.355
'5:06.561',-1.400,0.360
'5:06.564',-1.425,0.360
'5:06.567',-1.440,0.365
'5:06.569',-1.435,0.380
'5:06.572',-1.440,0.380
'5:06.575',-1.440,0.370
'5:06.578',-1.465,0.375
'5:06.581',-1.495,0.380
'5:06.583',-1.515,0.380
'5:06.586',-1.510,0.430
'5:06.589',-1.485,0.435
'5:06.592',-1.505,0.440
'5:06.594',-1.520,0.440
'5:06.597',-1.565,0.455
'5:06.600',-1.565,0.485
'5:06.603',-1.555,0.500
'5:06.606',-1.545,0.510
'5:06.608',-1.565,0.525
'5:06.611',-1.560,0.535
'5:06.614',-1.565,0.550
'5:06.617',-1.530,0.555
'5:06.619',-1.500,0.570
'5:06.622',-1.485,0.580
'5:06.625',-1.470,0.570
'5:06.628',-1.450,0.550
'5:06.631',-1.410,0.560
'5:06.633',-1.365,0.555
'5:06.636',-1.320,0.565
'5:06.639',-1.260,0.555
'5:06.642',-1.205,0.520
'5:06.644',-1.170,0.490
'5:06.647',-1.125,0.485
'5:06.650',-1.065,0.465
'5:06.653',-0.980,0.475
'5:06.656',-0.900,0.475
'5:06.658',-0.830,0.435
'5:06.661',-0.785,0.420
'5:06.664',-0.745,0.395
'5:06.667',-0.660,0.390
'5:06.669',-0.575,0.380
'5:06.672',-0.475,0.360
'5:06.675',-0.425,0.330
'5:06.678',-0.375,0.295
'5:06.681',-0.330,0.280
'5:06.683',-0.280,0.275
'5:06.686',-0.220,0.270
'5:06.689',-0.185,0.255
'5:06.692',-0.165,0.230
'5:06.694',-0.175,0.210
'5:06.697',-0.175,0.195
'5:06.700',-0.160,0.190
'5:06.703',-0.140,0.205
'5:06.706',-0.130,0.205
'5:06.708',-0.140,0.160
'5:06.711',-0.160,0.140
'5:06.714',-0.170,0.130
'5:06.717',-0.150,0.125
'5:06.719',-0.145,0.120
'5:06.722',-0.155,0.120
'5:06.725',-0.150,0.085
'5:06.728',-0.125,0.060
'5:06.731',-0.130,0.040
'5:06.733',-0.135,0.060
'5:06.736',-0.125,0.050
'5:06.739',-0.110,0.035
'5:06.742',-0.090,0.015
'5:06.744',-0.095,-0.005
'5:06.747',-0.100,-0.025
'5:06.750',-0.090,-0.010
'5:06.753',-0.060,-0.015
'5:06.756',-0.020,-0.030
'5:06.758',0.020,-0.055
'5:06.761',0.060,-0.085
'5:06.764',0.135,-0.110
'5:06.767',0.215,-0.135
'5:06.769',0.295,-0.145
'5:06.772',0.370,-0.170
'5:06.775',0.445,-0.210
'5:06.778',0.530,-0.255
'5:06.781',0.615,-0.295
'5:06.783',0.675,-0.310
'5:06.786',0.790,-0.340
'5:06.789',0.900,-0.380
'5:06.792',1.040,-0.430
'5:06.794',1.180,-0.505
'5:06.797',1.355,-0.600
'5:06.800',1.590,-0.680
'5:06.803',1.800,-0.745
'5:06.806',1.880,-0.785
'5:06.808',1.845,-0.830
'5:06.811',1.750,-0.840
'5:06.814',1.680,-0.825
'5:06.817',1.635,-0.795
'5:06.819',1.640,-0.740
'5:06.822',1.665,-0.690
'5:06.825',1.680,-0.660
'5:06.828',1.680,-0.635
'5:06.831',1.580,-0.575
'5:06.833',1.405,-0.515
'5:06.836',1.135,-0.465
'5:06.839',0.815,-0.475
'5:06.842',0.380,-0.495
'5:06.844',-0.115,-0.515
'5:06.847',-0.525,-0.550
'5:06.850',-0.860,-0.545
'5:06.853',-1.145,-0.500
'5:06.856',-1.345,-0.460
'5:06.858',-1.365,-0.390
'5:06.861',-1.310,-0.340
'5:06.864',-1.190,-0.285
'5:06.867',-1.080,-0.190
'5:06.869',-0.995,-0.095
'5:06.872',-0.940,-0.015
'5:06.875',-0.895,0.020
'5:06.878',-0.885,0.050
'5:06.881',-0.885,0.055
'5:06.883',-0.915,0.095
'5:06.886',-0.935,0.135
'5:06.889',-0.940,0.165
'5:06.892',-0.950,0.170
'5:06.894',-0.960,0.175
'5:06.897',-0.980,0.185
'5:06.900',-1.005,0.220
'5:06.903',-1.000,0.260
'5:06.906',-0.995,0.280
'5:06.908',-1.010,0.275
'5:06.911',-1.040,0.295
'5:06.914',-1.075,0.300
'5:06.917',-1.085,0.310
'5:06.919',-1.080,0.320
'5:06.922',-1.055,0.335
'5:06.925',-1.080,0.305
'5:06.928',-1.105,0.305
'5:06.931',-1.130,0.320
'5:06.933',-1.145,0.330
'5:06.936',-1.150,0.360
'5:06.939',-1.160,0.370
'5:06.942',-1.185,0.375
'5:06.944',-1.195,0.345
'5:06.947',-1.230,0.345
'5:06.950',-1.225,0.370
'5:06.953',-1.215,0.390
'5:06.956',-1.210,0.400
'5:06.958',-1.220,0.380
'5:06.961',-1.250,0.365
'5:06.964',-1.265,0.360
'5:06.967',-1.265,0.365
'5:06.969',-1.255,0.395
'5:06.972',-1.250,0.385
'5:06.975',-1.245,0.385
'5:06.978',-1.250,0.365
'5:06.981',-1.260,0.365
'5:06.983',-1.245,0.385
'5:06.986',-1.220,0.400
'5:06.989',-1.165,0.395
'5:06.992',-1.165,0.390
'5:06.994',-1.110,0.365
'5:06.997',-1.085,0.365
'5:07.000',-1.040,0.365
'5:07.003',-0.970,0.380
'5:07.006',-0.905,0.370
'5:07.008',-0.845,0.355
'5:07.011',-0.790,0.335
'5:07.014',-0.740,0.320
'5:07.017',-0.650,0.335
'5:07.019',-0.585,0.340
'5:07.022',-0.500,0.320
'5:07.025',-0.450,0.300
'5:07.028',-0.415,0.270
'5:07.031',-0.360,0.240
'5:07.033',-0.300,0.245
'5:07.036',-0.235,0.255
'5:07.039',-0.170,0.255
'5:07.042',-0.140,0.225
'5:07.044',-0.125,0.205
'5:07.047',-0.105,0.185
'5:07.050',-0.080,0.185
'5:07.053',-0.070,0.190
'5:07.056',-0.050,0.170
'5:07.058',-0.055,0.155
'5:07.061',-0.070,0.130
'5:07.064',-0.090,0.125
'5:07.067',-0.105,0.135
'5:07.069',-0.110,0.140
'5:07.072',-0.090,0.130
'5:07.075',-0.105,0.115
'5:07.078',-0.125,0.095
'5:07.081',-0.150,0.085
'5:07.083',-0.160,0.105
'5:07.086',-0.150,0.120
'5:07.089',-0.145,0.120
'5:07.092',-0.170,0.110
'5:07.094',-0.205,0.095
'5:07.097',-0.225,0.085
'5:07.100',-0.215,0.095
'5:07.103',-0.210,0.100
'5:07.106',-0.220,0.090
'5:07.108',-0.225,0.045
'5:07.111',-0.220,0.030
'5:07.114',-0.210,0.015
'5:07.117',-0.215,0.015
'5:07.119',-0.225,0.025
'5:07.122',-0.225,0.020
'5:07.125',-0.225,0.005
'5:07.128',-0.230,-0.005
'5:07.131',-0.245,-0.005
'5:07.133',-0.220,0.015
'5:07.136',-0.215,0.030
'5:07.139',-0.215,0.040
'5:07.142',-0.200,0.025
'5:07.144',-0.215,0.020
'5:07.147',-0.220,0.020
'5:07.150',-0.220,0.035
'5:07.153',-0.195,0.060
'5:07.156',-0.170,0.050
'5:07.158',-0.180,0.050
'5:07.161',-0.205,0.025
'5:07.164',-0.220,0.015
'5:07.167',-0.220,0.040
'5:07.169',-0.215,0.065
'5:07.172',-0.190,0.070
'5:07.175',-0.200,0.060
'5:07.178',-0.225,0.035
'5:07.181',-0.240,0.050
'5:07.183',-0.230,0.065
'5:07.186',-0.205,0.075
'5:07.189',-0.205,0.085
'5:07.192',-0.205,0.075
'5:07.194',-0.220,0.065
'5:07.197',-0.240,0.085
'5:07.200',-0.235,0.085
'5:07.203',-0.225,0.100
'5:07.206',-0.225,0.090
'5:07.208',-0.215,0.080
'5:07.211',-0.225,0.065
'5:07.214',-0.240,0.055
'5:07.217',-0.245,0.070
'5:07.219',-0.235,0.070
'5:07.222',-0.220,0.070
'5:07.225',-0.220,0.055
'5:07.228',-0.235,0.025
'5:07.231',-0.255,0.015
'5:07.233',-0.240,0.025
'5:07.236',-0.225,0.030
'5:07.239',-0.225,0.025
'5:07.242',-0.215,-0.005
'5:07.244',-0.230,-0.010
'5:07.247',-0.240,-0.015
'5:07.250',-0.240,-0.005
'5:07.253',-0.215,0.015
'5:07.256',-0.205,0.015
'5:07.258',-0.200,0.005
'5:07.261',-0.205,-0.010
'5:07.264',-0.220,-0.025
'5:07.267',-0.225,-0.010
'5:07.269',-0.215,0.005
'5:07.272',-0.195,0.005
'5:07.275',-0.220,-0.015
'5:07.278',-0.220,-0.055
'5:07.281',-0.230,-0.055
'5:07.283',-0.215,-0.045
'5:07.286',-0.185,-0.070
'5:07.289',-0.185,-0.080
'5:07.292',-0.200,-0.100
'5:07.294',-0.215,-0.120
'5:07.297',-0.220,-0.130
'5:07.300',-0.215,-0.115
'5:07.303',-0.205,-0.100
'5:07.306',-0.195,-0.095
'5:07.308',-0.200,-0.095
'5:07.311',-0.190,-0.105
'5:07.314',-0.195,-0.100
'5:07.317',-0.215,-0.085
'5:07.319',-0.200,-0.045
'5:07.322',-0.200,-0.040
'5:07.325',-0.230,-0.055
'5:07.328',-0.255,-0.070
'5:07.331',-0.280,-0.045
'5:07.333',-0.275,-0.020
'5:07.336',-0.255,-0.005
'5:07.339',-0.245,-0.005
'5:07.342',-0.260,-0.015
'5:07.344',-0.290,-0.025
'5:07.347',-0.295,-0.015
'5:07.350',-0.265,0.010
'5:07.353',-0.260,0.025
'5:07.356',-0.240,0.030
'5:07.358',-0.235,0.025
'5:07.361',-0.255,0.020
'5:07.364',-0.265,0.025
'5:07.367',-0.270,0.035
'5:07.369',-0.245,0.045
'5:07.372',-0.235,0.050
'5:07.375',-0.245,0.045
'5:07.378',-0.240,0.035
'5:07.381',-0.255,0.040
'5:07.383',-0.250,0.050
'5:07.386',-0.210,0.070
'5:07.389',-0.205,0.055
'5:07.392',-0.230,0.075
'5:07.394',-0.235,0.050
'5:07.397',-0.245,0.065
'5:07.400',-0.245,0.095
'5:07.403',-0.240,0.120
'5:07.406',-0.225,0.140
'5:07.408',-0.230,0.130
'5:07.411',-0.250,0.120
'5:07.414',-0.265,0.135
'5:07.417',-0.265,0.155
'5:07.419',-0.245,0.170
'5:07.422',-0.225,0.180
'5:07.425',-0.220,0.150
'5:07.428',-0.250,0.135
'5:07.431',-0.250,0.120
'5:07.433',-0.240,0.120
'5:07.436',-0.220,0.115
'5:07.439',-0.215,0.105
'5:07.442',-0.240,0.080
'5:07.444',-0.245,0.040
'5:07.447',-0.225,0.005
'5:07.450',-0.210,-0.010
'5:07.453',-0.185,-0.015
'5:07.456',-0.180,-0.050
'5:07.458',-0.175,-0.075
'5:07.461',-0.195,-0.110
'5:07.464',-0.190,-0.125
'5:07.467',-0.200,-0.120
'5:07.469',-0.190,-0.100
'5:07.472',-0.170,-0.095
'5:07.475',-0.175,-0.125
'5:07.478',-0.185,-0.115
'5:07.481',-0.200,-0.110
'5:07.483',-0.190,-0.095
'5:07.486',-0.180,-0.055
'5:07.489',-0.150,-0.070
'5:07.492',-0.155,-0.050
'5:07.494',-0.195,-0.080
'5:07.497',-0.180,-0.080
'5:07.500',-0.180,-0.075
'5:07.503',-0.160,-0.025
'5:07.506',-0.180,-0.015
'5:07.508',-0.190,-0.020
'5:07.511',-0.195,-0.035
'5:07.514',-0.205,-0.015
'5:07.517',-0.225,-0.015
'5:07.519',-0.225,0.010
'5:07.522',-0.200,0.000
'5:07.525',-0.205,-0.015
'5:07.528',-0.235,-0.030
'5:07.531',-0.265,-0.015
'5:07.533',-0.265,-0.005
'5:07.536',-0.250,0.025
'5:07.539',-0.240,0.010
'5:07.542',-0.255,0.005
'5:07.544',-0.265,-0.005
'5:07.547',-0.260,0.005
'5:07.550',-0.250,0.015
'5:07.553',-0.250,0.040
'5:07.556',-0.235,0.055
'5:07.558',-0.230,0.045
'5:07.561',-0.230,0.035
'5:07.564',-0.240,0.050
'5:07.567',-0.240,0.065
'5:07.569',-0.220,0.085
'5:07.572',-0.210,0.100
'5:07.575',-0.200,0.105
'5:07.578',-0.220,0.085
'5:07.581',-0.215,0.115
'5:07.583',-0.205,0.130
'5:07.586',-0.190,0.145
'5:07.589',-0.180,0.140
'5:07.592',-0.205,0.140
'5:07.594',-0.220,0.120
'5:07.597',-0.230,0.120
'5:07.600',-0.220,0.130
'5:07.603',-0.210,0.135
'5:07.606',-0.210,0.135
'5:07.608',-0.215,0.120
'5:07.611',-0.225,0.095
'5:07.614',-0.230,0.100
'5:07.617',-0.245,0.100
'5:07.619',-0.240,0.105
'5:07.622',-0.230,0.095
'5:07.625',-0.215,0.060
'5:07.628',-0.225,0.025
'5:07.631',-0.230,-0.020
'5:07.633',-0.215,-0.035
'5:07.636',-0.180,-0.020
'5:07.639',-0.165,-0.035
'5:07.642',-0.180,-0.050
'5:07.644',-0.185,-0.065
'5:07.647',-0.195,-0.085
'5:07.650',-0.180,-0.070
'5:07.653',-0.165,-0.065
'5:07.656',-0.150,-0.055
'5:07.658',-0.175,-0.060
'5:07.661',-0.175,-0.080
'5:07.664',-0.185,-0.065
'5:07.667',-0.165,-0.035
'5:07.669',-0.160,-0.020
'5:07.672',-0.175,-0.015
'5:07.675',-0.160,-0.020
'5:07.678',-0.160,-0.030
'5:07.681',-0.170,-0.030
'5:07.683',-0.170,0.005
'5:07.686',-0.170,0.015
'5:07.689',-0.155,0.020
'5:07.692',-0.170,0.020
'5:07.694',-0.175,0.005
'5:07.697',-0.195,0.030
'5:07.700',-0.200,0.060
'5:07.703',-0.195,0.085
'5:07.706',-0.180,0.090
'5:07.708',-0.175,0.085
'5:07.711',-0.220,0.080
'5:07.714',-0.225,0.070
'5:07.717',-0.220,0.090
'5:07.719',-0.185,0.085
'5:07.722',-0.160,0.085
'5:07.725',-0.170,0.065
'5:07.728',-0.200,0.065
'5:07.731',-0.200,0.065
'5:07.733',-0.195,0.100
'5:07.736',-0.175,0.115
'5:07.739',-0.130,0.140
'5:07.742',-0.085,0.135
'5:07.744',-0.060,0.150
'5:07.747',-0.055,0.155
'5:07.750',-0.030,0.175
'5:07.753',0.000,0.185
'5:07.756',0.075,0.195
'5:07.758',0.135,0.200
'5:07.761',0.165,0.170
'5:07.764',0.210,0.150
'5:07.767',0.280,0.120
'5:07.769',0.365,0.070
'5:07.772',0.490,0.020
'5:07.775',0.650,-0.060
'5:07.778',0.795,-0.145
'5:07.781',0.925,-0.205
'5:07.783',1.020,-0.285
'5:07.786',1.110,-0.300
'5:07.789',1.200,-0.350
'5:07.792',1.300,-0.380
'5:07.794',1.360,-0.425
'5:07.797',1.390,-0.475
'5:07.800',1.400,-0.570
'5:07.803',1.360,-0.640
'5:07.806',1.280,-0.675
'5:07.808',1.150,-0.675
'5:07.811',1.010,-0.665
'5:07.814',0.830,-0.610
'5:07.817',0.610,-0.530
'5:07.819',0.390,-0.445
'5:07.822',0.190,-0.370
'5:07.825',-0.005,-0.305
'5:07.828',-0.145,-0.250
'5:07.831',-0.245,-0.195
'5:07.833',-0.295,-0.155
'5:07.836',-0.305,-0.135
'5:07.839',-0.305,-0.110
'5:07.842',-0.340,-0.100
'5:07.844',-0.380,-0.075
'5:07.847',-0.415,-0.060
'5:07.850',-0.435,-0.020
'5:07.853',-0.430,0.020
'5:07.856',-0.445,0.040
'5:07.858',-0.475,0.045
'5:07.861',-0.505,0.055
'5:07.864',-0.525,0.055
'5:07.867',-0.525,0.105
'5:07.869',-0.510,0.120
'5:07.872',-0.505,0.135
'5:07.875',-0.545,0.145
'5:07.878',-0.555,0.140
'5:07.881',-0.555,0.140
'5:07.883',-0.560,0.150
'5:07.886',-0.545,0.165
'5:07.889',-0.550,0.195
'5:07.892',-0.540,0.180
'5:07.894',-0.555,0.170
'5:07.897',-0.575,0.175
'5:07.900',-0.560,0.200
'5:07.903',-0.550,0.225
'5:07.906',-0.550,0.230
'5:07.908',-0.550,0.220
'5:07.911',-0.580,0.225
'5:07.914',-0.595,0.215
'5:07.917',-0.590,0.225
'5:07.919',-0.580,0.250
'5:07.922',-0.560,0.245
'5:07.925',-0.535,0.220
'5:07.928',-0.540,0.190
'5:07.931',-0.535,0.175
'5:07.933',-0.505,0.160
'5:07.936',-0.470,0.145
'5:07.939',-0.430,0.115
'5:07.942',-0.430,0.090
'5:07.944',-0.430,0.065
'5:07.947',-0.425,0.050
'5:07.950',-0.400,0.050
'5:07.953',-0.390,0.055
'5:07.956',-0.360,0.065
'5:07.958',-0.350,0.055
'5:07.961',-0.350,0.050
'5:07.964',-0.360,0.050
'5:07.967',-0.345,0.080
'5:07.969',-0.335,0.095
'5:07.972',-0.305,0.115
'5:07.975',-0.310,0.110
'5:07.978',-0.325,0.095
'5:07.981',-0.315,0.110
'5:07.983',-0.315,0.150
'5:07.986',-0.315,0.155
'5:07.989',-0.285,0.180
'5:07.992',-0.285,0.180
'5:07.994',-0.285,0.170
'5:07.997',-0.290,0.190
'5:08.000',-0.290,0.205
'5:08.003',-0.270,0.235
'5:08.006',-0.240,0.255
'5:08.008',-0.220,0.230
'5:08.011',-0.240,0.235
'5:08.014',-0.235,0.240
'5:08.017',-0.215,0.270
'5:08.019',-0.160,0.285
'5:08.022',-0.140,0.300
'5:08.025',-0.140,0.290
'5:08.028',-0.130,0.275
'5:08.031',-0.140,0.285
'5:08.033',-0.125,0.305
'5:08.036',-0.115,0.305
'5:08.039',-0.100,0.305
'5:08.042',-0.105,0.305
'5:08.044',-0.105,0.285
'5:08.047',-0.145,0.275
'5:08.050',-0.130,0.285
'5:08.053',-0.095,0.295
'5:08.056',-0.075,0.280
'5:08.058',-0.095,0.270
'5:08.061',-0.105,0.235
'5:08.064',-0.100,0.220
'5:08.067',-0.080,0.225
'5:08.069',-0.060,0.225
'5:08.072',-0.040,0.195
'5:08.075',-0.035,0.155
'5:08.078',-0.035,0.110
'5:08.081',-0.055,0.075
'5:08.083',-0.045,0.050
'5:08.086',-0.010,0.045
'5:08.089',0.000,0.030
'5:08.092',-0.015,-0.020
'5:08.094',-0.035,-0.035
'5:08.097',-0.030,-0.035
'5:08.100',-0.030,-0.035
'5:08.103',-0.025,-0.035
'5:08.106',-0.015,-0.035
'5:08.108',-0.005,-0.055
'5:08.111',-0.025,-0.060
'5:08.114',-0.040,-0.065
'5:08.117',-0.045,-0.050
'5:08.119',-0.035,-0.025
'5:08.122',-0.040,-0.005
'5:08.125',-0.025,-0.020
'5:08.128',-0.065,-0.025
'5:08.131',-0.085,-0.015
'5:08.133',-0.095,-0.015
'5:08.136',-0.080,0.015
'5:08.139',-0.025,0.020
'5:08.142',-0.005,0.005
'5:08.144',0.025,-0.015
'5:08.147',0.095,-0.015
'5:08.150',0.200,0.015
'5:08.153',0.295,0.035
'5:08.156',0.365,0.040
'5:08.158',0.400,0.030
'5:08.161',0.400,0.030
'5:08.164',0.360,0.045
'5:08.167',0.305,0.070
'5:08.169',0.285,0.110
'5:08.172',0.255,0.095
'5:08.175',0.165,0.100
'5:08.178',0.015,0.090
'5:08.181',-0.200,0.100
'5:08.183',-0.430,0.110
'5:08.186',-0.680,0.140
'5:08.189',-0.855,0.135
'5:08.192',-1.055,0.145
'5:08.194',-1.270,0.125
'5:08.197',-1.495,0.160
'5:08.200',-1.745,0.200
'5:08.203',-1.960,0.255
'5:08.206',-2.160,0.295
'5:08.208',-2.325,0.340
'5:08.211',-2.430,0.390
'5:08.214',-2.505,0.460
'5:08.217',-2.540,0.545
'5:08.219',-2.560,0.620
'5:08.222',-2.565,0.665
'5:08.225',-2.620,0.705
'5:08.228',-2.650,0.775
'5:08.231',-2.685,0.820
'5:08.233',-2.710,0.910
'5:08.236',-2.680,0.975
'5:08.239',-2.645,1.035
'5:08.242',-2.580,1.070
'5:08.244',-2.495,1.130
'5:08.247',-2.380,1.155
'5:08.250',-2.185,1.165
'5:08.253',-1.985,1.140
'5:08.256',-1.830,1.095
'5:08.258',-1.730,1.040
'5:08.261',-1.685,0.990
'5:08.264',-1.645,0.940
'5:08.267',-1.600,0.910
'5:08.269',-1.530,0.845
'5:08.272',-1.420,0.760
'5:08.275',-1.300,0.640
'5:08.278',-1.185,0.540
'5:08.281',-1.015,0.450
'5:08.283',-0.840,0.370
'5:08.286',-0.635,0.320
'5:08.289',-0.450,0.270
'5:08.292',-0.270,0.195
'5:08.294',-0.125,0.110
'5:08.297',-0.035,0.020
'5:08.300',0.080,-0.045
'5:08.303',0.180,-0.075
'5:08.306',0.245,-0.105
'5:08.308',0.265,-0.145
'5:08.311',0.275,-0.185
'5:08.314',0.295,-0.195
'5:08.317',0.330,-0.195
'5:08.319',0.370,-0.185
'5:08.322',0.380,-0.180
'5:08.325',0.405,-0.210
'5:08.328',0.425,-0.220
'5:08.331',0.435,-0.225
'5:08.333',0.445,-0.195
'5:08.336',0.495,-0.190
'5:08.339',0.535,-0.185
'5:08.342',0.565,-0.200
'5:08.344',0.580,-0.205
'5:08.347',0.595,-0.195
'5:08.350',0.645,-0.175
'5:08.353',0.710,-0.160
'5:08.356',0.755,-0.150
'5:08.358',0.775,-0.175
'5:08.361',0.830,-0.205
'5:08.364',0.865,-0.190
'5:08.367',0.935,-0.200
'5:08.369',1.005,-0.205
'5:08.372',1.065,-0.220
'5:08.375',1.150,-0.240
'5:08.378',1.195,-0.285
'5:08.381',1.235,-0.295
'5:08.383',1.295,-0.295
'5:08.386',1.365,-0.290
'5:08.389',1.425,-0.305
'5:08.392',1.455,-0.335
'5:08.394',1.490,-0.370
'5:08.397',1.525,-0.385
'5:08.400',1.560,-0.400
'5:08.403',1.610,-0.410
'5:08.406',1.640,-0.435
'5:08.408',1.660,-0.460
'5:08.411',1.665,-0.505
'5:08.414',1.700,-0.520
'5:08.417',1.700,-0.540
'5:08.419',1.710,-0.555
'5:08.422',1.720,-0.605
'5:08.425',1.715,-0.635
'5:08.428',1.685,-0.660
'5:08.431',1.650,-0.670
'5:08.433',1.630,-0.665
'5:08.436',1.610,-0.655
'5:08.439',1.585,-0.680
'5:08.442',1.545,-0.680
'5:08.444',1.500,-0.680
'5:08.447',1.440,-0.680
'5:08.450',1.390,-0.670
'5:08.453',1.360,-0.655
'5:08.456',1.325,-0.640
'5:08.458',1.285,-0.635
'5:08.461',1.215,-0.630
'5:08.464',1.135,-0.610
'5:08.467',1.080,-0.570
'5:08.469',1.055,-0.520
'5:08.472',1.020,-0.490
'5:08.475',0.945,-0.500
'5:08.478',0.850,-0.480
'5:08.481',0.780,-0.450
'5:08.483',0.720,-0.390
'5:08.486',0.670,-0.340
'5:08.489',0.610,-0.305
'5:08.492',0.560,-0.275
'5:08.494',0.510,-0.245
'5:08.497',0.445,-0.200
'5:08.500',0.390,-0.145
'5:08.503',0.370,-0.095
'5:08.506',0.350,-0.070
'5:08.508',0.280,-0.045
'5:08.511',0.235,-0.035
'5:08.514',0.190,-0.005
'5:08.517',0.175,0.040
'5:08.519',0.155,0.080
'5:08.522',0.110,0.085
'5:08.525',0.080,0.095
'5:08.528',0.050,0.105
'5:08.531',0.025,0.100
'5:08.533',0.000,0.125
'5:08.536',-0.010,0.140
'5:08.539',-0.010,0.145
'5:08.542',-0.035,0.120
'5:08.544',-0.095,0.105
'5:08.547',-0.110,0.085
'5:08.550',-0.120,0.080
'5:08.553',-0.125,0.085
'5:08.556',-0.115,0.055
'5:08.558',-0.140,-0.010
'5:08.561',-0.150,-0.040
'5:08.564',-0.145,-0.080
'5:08.567',-0.160,-0.080
'5:08.569',-0.175,-0.080
'5:08.572',-0.160,-0.095
'5:08.575',-0.170,-0.120
'5:08.578',-0.195,-0.150
'5:08.581',-0.230,-0.160
'5:08.583',-0.225,-0.155
'5:08.586',-0.220,-0.140
'5:08.589',-0.230,-0.145
'5:08.592',-0.250,-0.170
'5:08.594',-0.280,-0.170
'5:08.597',-0.295,-0.170
'5:08.600',-0.280,-0.140
'5:08.603',-0.280,-0.145
'5:08.606',-0.280,-0.120
'5:08.608',-0.285,-0.120
'5:08.611',-0.290,-0.125
'5:08.614',-0.305,-0.120
'5:08.617',-0.320,-0.080
'5:08.619',-0.310,-0.050
'5:08.622',-0.290,-0.025
'5:08.625',-0.315,-0.040
'5:08.628',-0.360,-0.025
'5:08.631',-0.365,-0.010
'5:08.633',-0.350,0.030
'5:08.636',-0.340,0.065
'5:08.639',-0.330,0.070
'5:08.642',-0.340,0.070
'5:08.644',-0.355,0.060
'5:08.647',-0.365,0.055
'5:08.650',-0.370,0.090
'5:08.653',-0.370,0.115
'5:08.656',-0.350,0.125
'5:08.658',-0.345,0.120
'5:08.661',-0.355,0.100
'5:08.664',-0.385,0.105
'5:08.667',-0.385,0.145
'5:08.669',-0.370,0.155
'5:08.672',-0.355,0.155
'5:08.675',-0.370,0.145
'5:08.678',-0.390,0.140
'5:08.681',-0.420,0.135
'5:08.683',-0.405,0.170
'5:08.686',-0.365,0.175
'5:08.689',-0.360,0.165
'5:08.692',-0.375,0.155
'5:08.694',-0.385,0.140
'5:08.697',-0.370,0.155
'5:08.700',-0.355,0.155
'5:08.703',-0.355,0.170
'5:08.706',-0.340,0.155
'5:08.708',-0.340,0.155
'5:08.711',-0.345,0.125
'5:08.714',-0.350,0.115
'5:08.717',-0.340,0.130
'5:08.719',-0.325,0.125
'5:08.722',-0.315,0.110
'5:08.725',-0.310,0.075
'5:08.728',-0.350,0.065
'5:08.731',-0.355,0.030
'5:08.733',-0.360,0.005
'5:08.736',-0.345,0.010
'5:08.739',-0.305,-0.055
'5:08.742',-0.310,-0.055
'5:08.744',-0.330,-0.085
'5:08.747',-0.330,-0.120
'5:08.750',-0.335,-0.105
'5:08.753',-0.335,-0.090
'5:08.756',-0.350,-0.115
'5:08.758',-0.355,-0.150
'5:08.761',-0.355,-0.160
'5:08.764',-0.370,-0.175
'5:08.767',-0.380,-0.160
'5:08.769',-0.385,-0.155
'5:08.772',-0.370,-0.150
'5:08.775',-0.370,-0.160
'5:08.778',-0.400,-0.165
'5:08.781',-0.410,-0.165
'5:08.783',-0.395,-0.135
'5:08.786',-0.380,-0.105
'5:08.789',-0.395,-0.090
'5:08.792',-0.420,-0.085
'5:08.794',-0.445,-0.085
'5:08.797',-0.455,-0.055
'5:08.800',-0.435,-0.030
'5:08.803',-0.425,-0.005
'5:08.806',-0.410,0.010
'5:08.808',-0.420,0.005
'5:08.811',-0.435,0.015
'5:08.814',-0.455,0.025
'5:08.817',-0.470,0.040
'5:08.819',-0.455,0.050
'5:08.822',-0.435,0.075
'5:08.825',-0.430,0.070
'5:08.828',-0.465,0.060
'5:08.831',-0.505,0.090
'5:08.833',-0.480,0.110
'5:08.836',-0.450,0.130
'5:08.839',-0.445,0.135
'5:08.842',-0.460,0.115
'5:08.844',-0.470,0.120
'5:08.847',-0.470,0.110
'5:08.850',-0.465,0.130
'5:08.853',-0.475,0.145
'5:08.856',-0.460,0.140
'5:08.858',-0.460,0.135
'5:08.861',-0.465,0.130
'5:08.864',-0.475,0.125
'5:08.867',-0.460,0.130
'5:08.869',-0.445,0.150
'5:08.872',-0.445,0.140
'5:08.875',-0.460,0.120
'5:08.878',-0.470,0.085
'5:08.881',-0.455,0.075
'5:08.883',-0.460,0.060
'5:08.886',-0.455,0.080
'5:08.889',-0.440,0.055
'5:08.892',-0.440,0.030
'5:08.894',-0.445,-0.010
'5:08.897',-0.460,-0.020
'5:08.900',-0.460,-0.045
'5:08.903',-0.410,-0.045
'5:08.906',-0.355,-0.045
'5:08.908',-0.270,-0.065
'5:08.911',-0.240,-0.080
'5:08.914',-0.205,-0.045
'5:08.917',-0.145,-0.020
'5:08.919',-0.060,0.015
'5:08.922',0.020,0.045
'5:08.925',0.065,0.050
'5:08.928',0.115,0.045
'5:08.931',0.175,-0.005
'5:08.933',0.325,-0.040
'5:08.936',0.545,-0.060
'5:08.939',0.745,-0.130
'5:08.942',0.880,-0.225
'5:08.944',0.935,-0.295
'5:08.947',0.975,-0.330
'5:08.950',1.035,-0.345
'5:08.953',1.090,-0.380
'5:08.956',1.105,-0.455
'5:08.958',1.035,-0.540
'5:08.961',0.885,-0.580
'5:08.964',0.690,-0.570
'5:08.967',0.525,-0.520
'5:08.969',0.370,-0.460
'5:08.972',0.165,-0.370
'5:08.975',-0.090,-0.290
'5:08.978',-0.315,-0.200
'5:08.981',-0.480,-0.105
'5:08.983',-0.615,-0.015
'5:08.986',-0.715,0.065
'5:08.989',-0.750,0.095
'5:08.992',-0.760,0.115
'5:08.994',-0.805,0.135
'5:08.997',-0.840,0.160
'5:09.000',-0.865,0.195
'5:09.003',-0.865,0.225
'5:09.006',-0.870,0.215
'5:09.008',-0.900,0.220
'5:09.011',-0.925,0.205
'5:09.014',-0.945,0.195
'5:09.017',-0.955,0.200
'5:09.019',-0.965,0.205
'5:09.022',-0.950,0.180
'5:09.025',-0.965,0.170
'5:09.028',-0.990,0.160
'5:09.031',-0.990,0.150
'5:09.033',-0.995,0.160
'5:09.036',-0.980,0.155
'5:09.039',-0.975,0.135
'5:09.042',-0.980,0.125
'5:09.044',-0.990,0.085
'5:09.047',-0.990,0.050
'5:09.050',-0.985,0.025
'5:09.053',-0.985,0.005
'5:09.056',-0.985,-0.050
'5:09.058',-0.990,-0.095
'5:09.061',-1.000,-0.130
'5:09.064',-1.035,-0.150
'5:09.067',-1.030,-0.120
'5:09.069',-1.025,-0.110
'5:09.072',-1.030,-0.100
'5:09.075',-1.045,-0.110
'5:09.078',-1.060,-0.100
'5:09.081',-1.060,-0.065
'5:09.083',-1.060,-0.050
'5:09.086',-1.060,-0.005
'5:09.089',-1.030,0.005
'5:09.092',-1.015,0.030
'5:09.094',-1.025,0.045
'5:09.097',-1.050,0.075
'5:09.100',-1.045,0.120
'5:09.103',-1.020,0.160
'5:09.106',-1.010,0.170
'5:09.108',-1.005,0.180
'5:09.111',-1.025,0.195
'5:09.114',-1.020,0.200
'5:09.117',-1.015,0.240
'5:09.119',-1.010,0.280
'5:09.122',-0.995,0.290
'5:09.125',-0.995,0.290
'5:09.128',-1.010,0.280
'5:09.131',-1.030,0.300
'5:09.133',-1.025,0.315
'5:09.136',-1.005,0.345
'5:09.139',-0.975,0.360
'5:09.142',-0.980,0.325
'5:09.144',-1.010,0.320
'5:09.147',-1.010,0.320
'5:09.150',-0.965,0.335
'5:09.153',-0.915,0.350
'5:09.156',-0.895,0.335
'5:09.158',-0.895,0.320
'5:09.161',-0.890,0.300
'5:09.164',-0.875,0.300
'5:09.167',-0.840,0.295
'5:09.169',-0.820,0.310
'5:09.172',-0.790,0.280
'5:09.175',-0.765,0.265
'5:09.178',-0.750,0.235
'5:09.181',-0.750,0.230
'5:09.183',-0.735,0.225
'5:09.186',-0.715,0.225
'5:09.189',-0.685,0.190
'5:09.192',-0.685,0.160
'5:09.194',-0.705,0.110
'5:09.197',-0.720,0.110
'5:09.200',-0.700,0.085
'5:09.203',-0.685,0.075
'5:09.206',-0.675,0.060
'5:09.208',-0.690,0.000
'5:09.211',-0.710,-0.030
'5:09.214',-0.710,-0.060
'5:09.217',-0.710,-0.080
'5:09.219',-0.675,-0.105
'5:09.222',-0.675,-0.130
'5:09.225',-0.655,-0.165
'5:09.228',-0.685,-0.185
'5:09.231',-0.685,-0.195
'5:09.233',-0.690,-0.170
'5:09.236',-0.680,-0.155
'5:09.239',-0.685,-0.150
'5:09.242',-0.685,-0.155
'5:09.244',-0.705,-0.140
'5:09.247',-0.720,-0.120
'5:09.250',-0.735,-0.090
'5:09.253',-0.715,-0.065
'5:09.256',-0.705,-0.045
'5:09.258',-0.720,-0.025
'5:09.261',-0.750,-0.030
'5:09.264',-0.770,0.005
'5:09.267',-0.750,0.025
'5:09.269',-0.725,0.060
'5:09.272',-0.730,0.055
'5:09.275',-0.730,0.070
'5:09.278',-0.745,0.045
'5:09.281',-0.760,0.075
'5:09.283',-0.755,0.100
'5:09.286',-0.755,0.135
'5:09.289',-0.730,0.140
'5:09.292',-0.730,0.130
'5:09.294',-0.725,0.120
'5:09.297',-0.750,0.125
'5:09.300',-0.735,0.140
'5:09.303',-0.695,0.165
'5:09.306',-0.650,0.165
'5:09.308',-0.630,0.150
'5:09.311',-0.590,0.145
'5:09.314',-0.515,0.145
'5:09.317',-0.425,0.205
'5:09.319',-0.390,0.230
'5:09.322',-0.425,0.275
'5:09.325',-0.525,0.305
'5:09.328',-0.635,0.350
'5:09.331',-0.770,0.415
'5:09.333',-0.910,0.505
'5:09.336',-1.005,0.535
'5:09.339',-1.040,0.510
'5:09.342',-1.125,0.450
'5:09.344',-1.290,0.380
'5:09.347',-1.495,0.280
'5:09.350',-1.640,0.210
'5:09.353',-1.695,0.150
'5:09.356',-1.710,0.075
'5:09.358',-1.705,-0.010
'5:09.361',-1.625,-0.125
'5:09.364',-1.500,-0.225
'5:09.367',-1.385,-0.305
'5:09.369',-1.275,-0.410
'5:09.372',-1.145,-0.495
'5:09.375',-0.980,-0.585
'5:09.378',-0.810,-0.665
'5:09.381',-0.630,-0.690
'5:09.383',-0.510,-0.670
'5:09.386',-0.445,-0.650
'5:09.389',-0.440,-0.650
'5:09.392',-0.395,-0.660
'5:09.394',-0.330,-0.655
'5:09.397',-0.315,-0.625
'5:09.400',-0.370,-0.575
'5:09.403',-0.480,-0.515
'5:09.406',-0.590,-0.470
'5:09.408',-0.715,-0.410
'5:09.411',-0.835,-0.380
'5:09.414',-0.890,-0.340
'5:09.417',-0.885,-0.285
'5:09.419',-0.835,-0.230
'5:09.422',-0.805,-0.190
'5:09.425',-0.800,-0.160
'5:09.428',-0.820,-0.145
'5:09.431',-0.810,-0.110
'5:09.433',-0.800,-0.080
'5:09.436',-0.765,-0.040
'5:09.439',-0.745,-0.020
'5:09.442',-0.765,-0.015
'5:09.444',-0.760,0.005
'5:09.447',-0.745,0.025
'5:09.450',-0.725,0.050
'5:09.453',-0.705,0.085
'5:09.456',-0.680,0.095
'5:09.458',-0.655,0.090
'5:09.461',-0.670,0.095
'5:09.464',-0.645,0.105
'5:09.467',-0.620,0.130
'5:09.469',-0.580,0.125
'5:09.472',-0.545,0.115
'5:09.475',-0.510,0.100
'5:09.478',-0.485,0.090
'5:09.481',-0.465,0.085
'5:09.483',-0.430,0.085
'5:09.486',-0.405,0.080
'5:09.489',-0.370,0.065
'5:09.492',-0.340,0.045
'5:09.494',-0.340,0.025
'5:09.497',-0.350,0.015
'5:09.500',-0.325,0.015
'5:09.503',-0.280,0.025
'5:09.506',-0.235,0.010
'5:09.508',-0.210,-0.005
'5:09.511',-0.210,-0.030
'5:09.514',-0.180,-0.045
'5:09.517',-0.140,-0.075
'5:09.519',-0.090,-0.095
'5:09.522',-0.040,-0.110
'5:09.525',-0.015,-0.150
'5:09.528',-0.010,-0.165
'5:09.531',-0.005,-0.170
'5:09.533',0.035,-0.150
'5:09.536',0.060,-0.130
'5:09.539',0.080,-0.135
'5:09.542',0.080,-0.140
'5:09.544',0.085,-0.140
'5:09.547',0.090,-0.135
'5:09.550',0.085,-0.110
'5:09.553',0.115,-0.090
'5:09.556',0.110,-0.095
'5:09.558',0.085,-0.080
'5:09.561',0.050,-0.085
'5:09.564',0.000,-0.070
'5:09.567',-0.020,-0.045
'5:09.569',-0.040,0.000
'5:09.572',-0.070,0.000
'5:09.575',-0.120,-0.005
'5:09.578',-0.175,-0.010
'5:09.581',-0.210,0.010
'5:09.583',-0.255,0.015
'5:09.586',-0.295,0.065
'5:09.589',-0.325,0.065
'5:09.592',-0.355,0.065
'5:09.594',-0.390,0.040
'5:09.597',-0.435,0.040
'5:09.600',-0.440,0.055
'5:09.603',-0.435,0.070
'5:09.606',-0.450,0.070
'5:09.608',-0.470,0.035
'5:09.611',-0.485,0.025
'5:09.614',-0.505,0.025
'5:09.617',-0.525,0.045
'5:09.619',-0.520,0.055
'5:09.622',-0.530,0.055
'5:09.625',-0.530,0.020
'5:09.628',-0.540,0.000
'5:09.631',-0.555,-0.030
'5:09.633',-0.555,-0.035
'5:09.636',-0.540,-0.040
'5:09.639',-0.530,-0.045
'5:09.642',-0.540,-0.075
'5:09.644',-0.575,-0.090
'5:09.647',-0.585,-0.085
'5:09.650',-0.590,-0.070
'5:09.653',-0.585,-0.055
'5:09.656',-0.580,-0.075
'5:09.658',-0.585,-0.090
'5:09.661',-0.585,-0.120
'5:09.664',-0.585,-0.115
'5:09.667',-0.565,-0.110
'5:09.669',-0.580,-0.115
'5:09.672',-0.575,-0.120
'5:09.675',-0.575,-0.145
'5:09.678',-0.580,-0.165
'5:09.681',-0.600,-0.170
'5:09.683',-0.595,-0.145
'5:09.686',-0.585,-0.135
'5:09.689',-0.560,-0.125
'5:09.692',-0.555,-0.130
'5:09.694',-0.595,-0.120
'5:09.697',-0.620,-0.120
'5:09.700',-0.610,-0.110
'5:09.703',-0.595,-0.080
'5:09.706',-0.585,-0.070
'5:09.708',-0.600,-0.070
'5:09.711',-0.630,-0.065
'5:09.714',-0.635,-0.025
'5:09.717',-0.620,-0.010
'5:09.719',-0.580,0.030
'5:09.722',-0.530,0.035
'5:09.725',-0.475,0.035
'5:09.728',-0.420,0.040
'5:09.731',-0.385,0.070
'5:09.733',-0.360,0.095
'5:09.736',-0.355,0.150
'5:09.739',-0.370,0.170
'5:09.742',-0.415,0.210
'5:09.744',-0.460,0.215
'5:09.747',-0.450,0.185
'5:09.750',-0.365,0.175
'5:09.753',-0.200,0.155
'5:09.756',-0.080,0.090
'5:09.758',0.020,-0.030
'5:09.761',0.095,-0.130
'5:09.764',0.185,-0.225
'5:09.767',0.310,-0.265
'5:09.769',0.405,-0.295
'5:09.772',0.435,-0.360
'5:09.775',0.465,-0.425
'5:09.778',0.450,-0.495
'5:09.781',0.395,-0.550
'5:09.783',0.325,-0.580
'5:09.786',0.270,-0.555
'5:09.789',0.205,-0.515
'5:09.792',0.095,-0.470
'5:09.794',-0.085,-0.455
'5:09.797',-0.265,-0.395
'5:09.800',-0.415,-0.340
'5:09.803',-0.505,-0.255
'5:09.806',-0.590,-0.200
'5:09.808',-0.680,-0.185
'5:09.811',-0.710,-0.170
'5:09.814',-0.725,-0.145
'5:09.817',-0.710,-0.130
'5:09.819',-0.720,-0.105
'5:09.822',-0.755,-0.105
'5:09.825',-0.770,-0.095
'5:09.828',-0.785,-0.120
'5:09.831',-0.790,-0.110
'5:09.833',-0.805,-0.100
'5:09.836',-0.800,-0.100
'5:09.839',-0.790,-0.100
'5:09.842',-0.785,-0.100
'5:09.844',-0.810,-0.120
'5:09.847',-0.810,-0.125
'5:09.850',-0.810,-0.110
'5:09.853',-0.790,-0.080
'5:09.856',-0.785,-0.075
'5:09.858',-0.790,-0.080
'5:09.861',-0.805,-0.100
'5:09.864',-0.795,-0.090
'5:09.867',-0.790,-0.065
'5:09.869',-0.785,-0.040
'5:09.872',-0.750,-0.035
'5:09.875',-0.740,-0.040
'5:09.878',-0.750,-0.055
'5:09.881',-0.750,-0.035
'5:09.883',-0.735,-0.010
'5:09.886',-0.695,0.015
'5:09.889',-0.700,-0.005
'5:09.892',-0.700,0.000
'5:09.894',-0.705,-0.010
'5:09.897',-0.690,-0.005
'5:09.900',-0.670,0.005
'5:09.903',-0.655,0.030
'5:09.906',-0.645,0.010
'5:09.908',-0.650,-0.005
'5:09.911',-0.645,-0.025
'5:09.914',-0.640,-0.040
'5:09.917',-0.615,-0.040
'5:09.919',-0.565,-0.030
'5:09.922',-0.565,-0.065
'5:09.925',-0.565,-0.075
'5:09.928',-0.570,-0.110
'5:09.931',-0.560,-0.100
'5:09.933',-0.540,-0.090
'5:09.936',-0.525,-0.070
'5:09.939',-0.510,-0.080
'5:09.942',-0.490,-0.095
'5:09.944',-0.500,-0.115
'5:09.947',-0.495,-0.110
'5:09.950',-0.485,-0.090
'5:09.953',-0.440,-0.080
'5:09.956',-0.425,-0.100
'5:09.958',-0.445,-0.115
'5:09.961',-0.445,-0.115
'5:09.964',-0.455,-0.105
'5:09.967',-0.450,-0.095
'5:09.969',-0.425,-0.090
'5:09.972',-0.410,-0.080
'5:09.975',-0.395,-0.090
'5:09.978',-0.405,-0.110
'5:09.981',-0.420,-0.115
'5:09.983',-0.410,-0.095
'5:09.986',-0.385,-0.060
'5:09.989',-0.385,-0.060
'5:09.992',-0.415,-0.075
'5:09.994',-0.410,-0.080
'5:09.997',-0.410,-0.080
'5:10.000',-0.405,-0.050
'5:10.003',-0.405,-0.020
'5:10.006',-0.395,0.000
'5:10.008',-0.400,-0.015
'5:10.011',-0.425,-0.015
'5:10.014',-0.435,-0.005
'5:10.017',-0.430,0.005
'5:10.019',-0.415,0.040
'5:10.022',-0.420,0.035
'5:10.025',-0.440,0.020
'5:10.028',-0.460,0.010
'5:10.031',-0.470,0.010
'5:10.033',-0.460,0.025
'5:10.036',-0.440,0.030
'5:10.039',-0.425,0.030
'5:10.042',-0.415,0.000
'5:10.044',-0.425,-0.040
'5:10.047',-0.435,-0.025
'5:10.050',-0.455,-0.040
'5:10.053',-0.415,-0.015
'5:10.056',-0.410,-0.055
'5:10.058',-0.420,-0.070
'5:10.061',-0.420,-0.095
'5:10.064',-0.440,-0.100
'5:10.067',-0.415,-0.095
'5:10.069',-0.400,-0.070
'5:10.072',-0.395,-0.080
'5:10.075',-0.405,-0.095
'5:10.078',-0.415,-0.115
'5:10.081',-0.425,-0.120
'5:10.083',-0.405,-0.110
'5:10.086',-0.395,-0.095
'5:10.089',-0.375,-0.120
'5:10.092',-0.395,-0.135
'5:10.094',-0.390,-0.145
'5:10.097',-0.390,-0.140
'5:10.100',-0.375,-0.140
'5:10.103',-0.365,-0.125
'5:10.106',-0.350,-0.135
'5:10.108',-0.355,-0.135
'5:10.111',-0.360,-0.155
'5:10.114',-0.370,-0.150
'5:10.117',-0.370,-0.125
'5:10.119',-0.385,-0.105
'5:10.122',-0.390,-0.100
'5:10.125',-0.400,-0.105
'5:10.128',-0.400,-0.100
'5:10.131',-0.380,-0.090
'5:10.133',-0.370,-0.055
'5:10.136',-0.345,-0.030
'5:10.139',-0.350,-0.035
'5:10.142',-0.350,-0.040
'5:10.144',-0.355,-0.040
'5:10.147',-0.355,-0.025
'5:10.150',-0.350,-0.025
'5:10.153',-0.320,-0.010
'5:10.156',-0.290,-0.005
'5:10.158',-0.290,-0.025
'5:10.161',-0.315,-0.040
'5:10.164',-0.335,-0.020
'5:10.167',-0.315,-0.020
'5:10.169',-0.290,-0.020
'5:10.172',-0.290,-0.030
'5:10.175',-0.310,-0.065
'5:10.178',-0.315,-0.080
'5:10.181',-0.315,-0.090
'5:10.183',-0.325,-0.080
'5:10.186',-0.290,-0.070
'5:10.189',-0.285,-0.065
'5:10.192',-0.285,-0.095
'5:10.194',-0.310,-0.115
'5:10.197',-0.330,-0.110
'5:10.200',-0.325,-0.095
'5:10.203',-0.310,-0.065
'5:10.206',-0.285,-0.070
'5:10.208',-0.300,-0.085
'5:10.211',-0.315,-0.085
'5:10.214',-0.320,-0.070
'5:10.217',-0.310,-0.055
'5:10.219',-0.305,-0.035
'5:10.222',-0.320,-0.040
'5:10.225',-0.320,-0.040
'5:10.228',-0.315,-0.055
'5:10.231',-0.330,-0.055
'5:10.233',-0.330,-0.035
'5:10.236',-0.315,-0.025
'5:10.239',-0.290,-0.025
'5:10.242',-0.290,-0.045
'5:10.244',-0.310,-0.055
'5:10.247',-0.330,-0.055
'5:10.250',-0.310,-0.040
'5:10.253',-0.290,-0.020
'5:10.256',-0.300,-0.035
'5:10.258',-0.300,-0.060
'5:10.261',-0.310,-0.075
'5:10.264',-0.315,-0.080
'5:10.267',-0.315,-0.065
'5:10.269',-0.320,-0.055
'5:10.272',-0.285,-0.055
'5:10.275',-0.310,-0.065
'5:10.278',-0.335,-0.075
'5:10.281',-0.350,-0.080
'5:10.283',-0.330,-0.060
'5:10.286',-0.295,-0.035
'5:10.289',-0.285,-0.050
'5:10.292',-0.305,-0.065
'5:10.294',-0.315,-0.075
'5:10.297',-0.300,-0.050
'5:10.300',-0.275,-0.060
'5:10.303',-0.260,-0.030
'5:10.306',-0.260,-0.050
'5:10.308',-0.240,-0.050
'5:10.311',-0.230,-0.070
'5:10.314',-0.240,-0.085
'5:10.317',-0.235,-0.070
'5:10.319',-0.195,-0.060
'5:10.322',-0.165,-0.085
'5:10.325',-0.155,-0.105
'5:10.328',-0.180,-0.110
'5:10.331',-0.180,-0.090
'5:10.333',-0.165,-0.075
'5:10.336',-0.155,-0.055
'5:10.339',-0.145,-0.050
'5:10.342',-0.110,-0.050
'5:10.344',-0.060,-0.060
'5:10.347',-0.020,-0.035
'5:10.350',0.010,-0.020
'5:10.353',0.060,-0.010
'5:10.356',0.145,-0.030
'5:10.358',0.210,-0.030
'5:10.361',0.235,-0.045
'5:10.364',0.270,-0.050
'5:10.367',0.335,-0.070
'5:10.369',0.435,-0.105
'5:10.372',0.570,-0.140
'5:10.375',0.710,-0.210
'5:10.378',0.850,-0.295
'5:10.381',0.950,-0.345
'5:10.383',1.040,-0.370
'5:10.386',1.155,-0.415
'5:10.389',1.280,-0.435
'5:10.392',1.340,-0.485
'5:10.394',1.350,-0.555
'5:10.397',1.320,-0.605
'5:10.400',1.240,-0.600
'5:10.403',1.085,-0.585
'5:10.406',0.925,-0.550
'5:10.408',0.720,-0.500
'5:10.411',0.485,-0.475
'5:10.414',0.215,-0.400
'5:10.417',0.005,-0.315
'5:10.419',-0.135,-0.240
'5:10.422',-0.260,-0.180
'5:10.425',-0.325,-0.175
'5:10.428',-0.365,-0.165
'5:10.431',-0.380,-0.130
'5:10.433',-0.390,-0.100
'5:10.436',-0.390,-0.070
'5:10.439',-0.410,-0.065
'5:10.442',-0.435,-0.065
'5:10.444',-0.470,-0.075
'5:10.447',-0.465,-0.065
'5:10.450',-0.485,-0.040
'5:10.453',-0.470,-0.025
'5:10.456',-0.475,-0.040
'5:10.458',-0.475,-0.055
'5:10.461',-0.495,-0.085
'5:10.464',-0.505,-0.095
'5:10.467',-0.495,-0.100
'5:10.469',-0.460,-0.080
'5:10.472',-0.445,-0.095
'5:10.475',-0.450,-0.085
'5:10.478',-0.450,-0.095
'5:10.481',-0.455,-0.105
'5:10.483',-0.455,-0.075
'5:10.486',-0.430,-0.060
'5:10.489',-0.420,-0.060
'5:10.492',-0.425,-0.060
'5:10.494',-0.435,-0.065
'5:10.497',-0.435,-0.045
'5:10.500',-0.415,-0.010
'5:10.503',-0.405,0.005
'5:10.506',-0.395,0.000
'5:10.508',-0.390,0.005
'5:10.511',-0.375,-0.010
'5:10.514',-0.375,0.005
'5:10.517',-0.365,0.030
'5:10.519',-0.345,0.030
'5:10.522',-0.320,0.040
'5:10.525',-0.335,0.030
'5:10.528',-0.345,0.020
'5:10.531',-0.345,0.030
'5:10.533',-0.325,0.035
'5:10.536',-0.305,0.060
'5:10.539',-0.300,0.050
'5:10.542',-0.290,0.030
'5:10.544',-0.285,0.030
'5:10.547',-0.305,0.040
'5:10.550',-0.295,0.060
'5:10.553',-0.260,0.085
'5:10.556',-0.235,0.085
'5:10.558',-0.245,0.065
'5:10.561',-0.255,0.055
'5:10.564',-0.245,0.055
'5:10.567',-0.240,0.065
'5:10.569',-0.225,0.075
'5:10.572',-0.210,0.060
'5:10.575',-0.190,0.055
'5:10.578',-0.175,0.030
'5:10.581',-0.165,0.020
'5:10.583',-0.150,0.040
'5:10.586',-0.140,0.045
'5:10.589',-0.090,0.040
'5:10.592',-0.065,0.005
'5:10.594',-0.060,-0.025
'5:10.597',-0.045,-0.010
'5:10.600',-0.010,-0.010
'5:10.603',0.020,0.020
'5:10.606',0.035,0.000
'5:10.608',0.030,-0.020
'5:10.611',0.015,-0.030
'5:10.614',0.030,-0.025
'5:10.617',0.040,0.000
'5:10.619',0.035,0.020
'5:10.622',0.040,0.005
'5:10.625',0.035,0.005
'5:10.628',0.030,0.015
'5:10.631',0.020,-0.005
'5:10.633',0.020,0.025
'5:10.636',0.020,0.045
'5:10.639',0.040,0.050
'5:10.642',0.030,0.045
'5:10.644',0.020,0.035
'5:10.647',0.000,0.050
'5:10.650',-0.005,0.070
'5:10.653',0.025,0.085
'5:10.656',0.055,0.075
'5:10.658',0.055,0.065
'5:10.661',0.040,0.055
'5:10.664',0.015,0.060
'5:10.667',0.030,0.050
'5:10.669',0.060,0.080
'5:10.672',0.065,0.055
'5:10.675',0.045,0.050
'5:10.678',0.035,0.045
'5:10.681',0.050,0.045
'5:10.683',0.055,0.065
'5:10.686',0.075,0.060
'5:10.689',0.065,0.055
'5:10.692',0.065,0.025
'5:10.694',0.060,0.025
'5:10.697',0.055,0.025
'5:10.700',0.050,0.020
'5:10.703',0.085,0.040
'5:10.706',0.130,0.020
'5:10.708',0.160,-0.020
'5:10.711',0.160,-0.035
'5:10.714',0.130,-0.040
'5:10.717',0.095,-0.065
'5:10.719',0.075,-0.070
'5:10.722',0.045,-0.120
'5:10.725',0.000,-0.185
'5:10.728',-0.055,-0.235
'5:10.731',-0.170,-0.270
'5:10.733',-0.335,-0.295
'5:10.736',-0.490,-0.335
'5:10.739',-0.640,-0.400
'5:10.742',-0.780,-0.490
'5:10.744',-0.865,-0.600
'5:10.747',-0.945,-0.720
'5:10.750',-1.005,-0.815
'5:10.753',-1.055,-0.845
'5:10.756',-1.120,-0.885
'5:10.758',-1.120,-0.915
'5:10.761',-1.055,-0.935
'5:10.764',-0.910,-0.960
'5:10.767',-0.805,-0.945
'5:10.769',-0.755,-0.950
'5:10.772',-0.745,-0.950
'5:10.775',-0.720,-0.940
'5:10.778',-0.685,-0.910
'5:10.781',-0.640,-0.870
'5:10.783',-0.610,-0.805
'5:10.786',-0.555,-0.715
'5:10.789',-0.465,-0.655
'5:10.792',-0.305,-0.635
'5:10.794',-0.180,-0.605
'5:10.797',-0.110,-0.570
'5:10.800',-0.040,-0.520
'5:10.803',0.010,-0.450
'5:10.806',0.015,-0.425
'5:10.808',-0.005,-0.380
'5:10.811',-0.035,-0.360
'5:10.814',-0.030,-0.305
'5:10.817',-0.015,-0.245
'5:10.819',-0.015,-0.190
'5:10.822',-0.045,-0.135
'5:10.825',-0.050,-0.095
'5:10.828',-0.035,-0.055
'5:10.831',0.000,-0.005
'5:10.833',0.050,0.055
'5:10.836',0.075,0.095
'5:10.839',0.075,0.140
'5:10.842',0.065,0.155
'5:10.844',0.050,0.165
'5:10.847',0.025,0.185
'5:10.850',0.040,0.225
'5:10.853',0.060,0.240
'5:10.856',0.075,0.265
'5:10.858',0.075,0.250
'5:10.861',0.060,0.250
'5:10.864',0.060,0.280
'5:10.867',0.085,0.285
'5:10.869',0.100,0.320
'5:10.872',0.110,0.320
'5:10.875',0.135,0.310
'5:10.878',0.130,0.300
'5:10.881',0.145,0.315
'5:10.883',0.195,0.320
'5:10.886',0.240,0.335
'5:10.889',0.285,0.315
'5:10.892',0.310,0.285
'5:10.894',0.315,0.255
'5:10.897',0.325,0.240
'5:10.900',0.370,0.255
'5:10.903',0.385,0.250
'5:10.906',0.405,0.235
'5:10.908',0.415,0.205
'5:10.911',0.435,0.185
'5:10.914',0.440,0.165
'5:10.917',0.490,0.210
'5:10.919',0.535,0.225
'5:10.922',0.590,0.230
'5:10.925',0.600,0.235
'5:10.928',0.625,0.235
'5:10.931',0.645,0.250
'5:10.933',0.690,0.285
'5:10.936',0.730,0.320
'5:10.939',0.765,0.310
'5:10.942',0.795,0.320
'5:10.944',0.825,0.305
'5:10.947',0.835,0.320
'5:10.950',0.860,0.350
'5:10.953',0.900,0.375
'5:10.956',0.930,0.375
'5:10.958',0.940,0.360
'5:10.961',0.920,0.390
'5:10.964',0.925,0.380
'5:10.967',0.940,0.405
'5:10.969',0.960,0.420
'5:10.972',0.950,0.420
'5:10.975',0.925,0.395
'5:10.978',0.895,0.390
'5:10.981',0.850,0.390
'5:10.983',0.810,0.390
'5:10.986',0.805,0.395
'5:10.989',0.795,0.390
'5:10.992',0.740,0.355
'5:10.994',0.695,0.335
'5:10.997',0.645,0.320
'5:11.000',0.620,0.330
'5:11.003',0.595,0.345
'5:11.006',0.560,0.315
'5:11.008',0.505,0.285
'5:11.011',0.480,0.280
'5:11.014',0.440,0.255
'5:11.017',0.410,0.265
'5:11.019',0.380,0.270
'5:11.022',0.365,0.260
'5:11.025',0.340,0.225
'5:11.028',0.310,0.220
'5:11.031',0.325,0.195
'5:11.033',0.365,0.205
'5:11.036',0.440,0.220
'5:11.039',0.470,0.200
'5:11.042',0.425,0.195
'5:11.044',0.325,0.210
'5:11.047',0.210,0.240
'5:11.050',0.100,0.300
'5:11.053',-0.015,0.315
'5:11.056',-0.075,0.305
'5:11.058',-0.105,0.215
'5:11.061',-0.085,0.135
'5:11.064',-0.085,0.035
'5:11.067',-0.080,-0.085
'5:11.069',-0.100,-0.185
'5:11.072',-0.170,-0.280
'5:11.075',-0.300,-0.390
'5:11.078',-0.395,-0.465
'5:11.081',-0.470,-0.545
'5:11.083',-0.560,-0.620
'5:11.086',-0.650,-0.655
'5:11.089',-0.760,-0.685
'5:11.092',-0.830,-0.715
'5:11.094',-0.815,-0.745
'5:11.097',-0.715,-0.735
'5:11.100',-0.655,-0.705
'5:11.103',-0.670,-0.645
'5:11.106',-0.740,-0.610
'5:11.108',-0.800,-0.605
'5:11.111',-0.800,-0.565
'5:11.114',-0.755,-0.510
'5:11.117',-0.680,-0.445
'5:11.119',-0.575,-0.390
'5:11.122',-0.480,-0.350
'5:11.125',-0.460,-0.320
'5:11.128',-0.455,-0.270
'5:11.131',-0.415,-0.225
'5:11.133',-0.350,-0.165
'5:11.136',-0.265,-0.120
'5:11.139',-0.205,-0.095
'5:11.142',-0.165,-0.050
'5:11.144',-0.125,-0.010
'5:11.147',-0.085,0.025
'5:11.150',-0.010,0.075
'5:11.153',0.030,0.115
'5:11.156',0.065,0.140
'5:11.158',0.080,0.160
'5:11.161',0.055,0.150
'5:11.164',0.055,0.165
'5:11.167',0.075,0.200
'5:11.169',0.095,0.220
'5:11.172',0.120,0.210
'5:11.175',0.105,0.210
'5:11.178',0.080,0.200
'5:11.181',0.090,0.215
'5:11.183',0.125,0.225
'5:11.186',0.140,0.240
'5:11.189',0.150,0.210
'5:11.192',0.145,0.190
'5:11.194',0.150,0.185
'5:11.197',0.175,0.180
'5:11.200',0.190,0.200
'5:11.203',0.215,0.200
'5:11.206',0.235,0.170
'5:11.208',0.250,0.145
'5:11.211',0.270,0.100
'5:11.214',0.285,0.075
'5:11.217',0.295,0.075
'5:11.219',0.330,0.070
'5:11.222',0.385,0.040
'5:11.225',0.430,-0.005
'5:11.228',0.435,-0.035
'5:11.231',0.460,-0.060
'5:11.233',0.500,-0.045
'5:11.236',0.565,-0.035
'5:11.239',0.605,-0.055
'5:11.242',0.630,-0.075
'5:11.244',0.660,-0.055
'5:11.247',0.695,-0.045
'5:11.250',0.750,-0.035
'5:11.253',0.785,0.010
'5:11.256',0.825,0.015
'5:11.258',0.870,0.020
'5:11.261',0.915,0.035
'5:11.264',0.950,0.065
'5:11.267',0.970,0.095
'5:11.269',1.010,0.140
'5:11.272',1.040,0.180
'5:11.275',1.040,0.175
'5:11.278',1.045,0.195
'5:11.281',1.040,0.215
'5:11.283',1.090,0.255
'5:11.286',1.110,0.290
'5:11.289',1.110,0.300
'5:11.292',1.090,0.315
'5:11.294',1.055,0.305
'5:11.297',1.050,0.340
'5:11.300',1.040,0.370
'5:11.303',1.010,0.395
'5:11.306',0.995,0.395
'5:11.308',0.965,0.395
'5:11.311',0.935,0.390
'5:11.314',0.870,0.400
'5:11.317',0.810,0.430
'5:11.319',0.790,0.435
'5:11.322',0.770,0.425
'5:11.325',0.710,0.420
'5:11.328',0.630,0.405
'5:11.331',0.570,0.390
'5:11.333',0.545,0.410
'5:11.336',0.515,0.415
'5:11.339',0.475,0.405
'5:11.342',0.415,0.380
'5:11.344',0.350,0.365
'5:11.347',0.315,0.355
'5:11.350',0.300,0.330
'5:11.353',0.290,0.330
'5:11.356',0.255,0.305
'5:11.358',0.230,0.285
'5:11.361',0.195,0.240
'5:11.364',0.145,0.225
'5:11.367',0.150,0.200
'5:11.369',0.130,0.175
'5:11.372',0.140,0.150
'5:11.375',0.120,0.080
'5:11.378',0.090,0.035
'5:11.381',0.070,0.005
'5:11.383',0.080,-0.015
'5:11.386',0.090,-0.035
'5:11.389',0.085,-0.080
'5:11.392',0.070,-0.105
'5:11.394',0.035,-0.135
'5:11.397',0.035,-0.140
'5:11.400',0.005,-0.130
'5:11.403',0.005,-0.110
'5:11.406',0.010,-0.115
'5:11.408',0.005,-0.115
'5:11.411',-0.010,-0.120
'5:11.414',-0.010,-0.085
'5:11.417',-0.005,-0.055
'5:11.419',0.020,-0.025
'5:11.422',0.020,-0.020
'5:11.425',0.020,-0.005
'5:11.428',0.030,-0.005
'5:11.431',0.045,0.015
'5:11.433',0.045,0.055
'5:11.436',0.065,0.065
'5:11.439',0.095,0.100
'5:11.442',0.120,0.110
'5:11.444',0.135,0.140
'5:11.447',0.130,0.175
'5:11.450',0.120,0.235
'5:11.453',0.110,0.275
'5:11.456',0.125,0.270
'5:11.458',0.130,0.270
'5:11.461',0.170,0.250
'5:11.464',0.235,0.195
'5:11.467',0.310,0.175
'5:11.469',0.400,0.140
'5:11.472',0.530,0.045
'5:11.475',0.735,-0.045
'5:11.478',0.975,-0.140
'5:11.481',1.165,-0.185
'5:11.483',1.270,-0.200
'5:11.486',1.360,-0.190
'5:11.489',1.475,-0.230
'5:11.492',1.535,-0.305
'5:11.494',1.525,-0.375
'5:11.497',1.500,-0.415
'5:11.500',1.415,-0.405
'5:11.503',1.330,-0.380
'5:11.506',1.200,-0.370
'5:11.508',1.055,-0.315
'5:11.511',0.885,-0.255
'5:11.514',0.655,-0.190
'5:11.517',0.450,-0.115
'5:11.519',0.275,-0.040
'5:11.522',0.110,0.000
'5:11.525',-0.060,0.030
'5:11.528',-0.195,0.050
'5:11.531',-0.255,0.070
'5:11.533',-0.265,0.080
'5:11.536',-0.270,0.065
'5:11.539',-0.280,0.030
'5:11.542',-0.300,-0.035
'5:11.544',-0.335,-0.070
'5:11.547',-0.375,-0.095
'5:11.550',-0.390,-0.085
'5:11.553',-0.415,-0.085
'5:11.556',-0.425,-0.075
'5:11.558',-0.460,-0.090
'5:11.561',-0.480,-0.090
'5:11.564',-0.490,-0.065
'5:11.567',-0.500,-0.040
'5:11.569',-0.490,-0.010
'5:11.572',-0.520,-0.005
'5:11.575',-0.495,0.000
'5:11.578',-0.510,0.005
'5:11.581',-0.520,0.025
'5:11.583',-0.515,0.060
'5:11.586',-0.495,0.085
'5:11.589',-0.475,0.085
'5:11.592',-0.470,0.095
'5:11.594',-0.490,0.110
'5:11.597',-0.510,0.140
'5:11.600',-0.500,0.170
'5:11.603',-0.495,0.190
'5:11.606',-0.485,0.210
'5:11.608',-0.495,0.215
'5:11.611',-0.500,0.205
'5:11.614',-0.505,0.240
'5:11.617',-0.495,0.275
'5:11.619',-0.485,0.290
'5:11.622',-0.465,0.305
'5:11.625',-0.465,0.295
'5:11.628',-0.475,0.295
'5:11.631',-0.475,0.315
'5:11.633',-0.475,0.350
'5:11.636',-0.460,0.380
'5:11.639',-0.460,0.380
'5:11.642',-0.470,0.375
'5:11.644',-0.490,0.375
'5:11.647',-0.485,0.390
'5:11.650',-0.475,0.395
'5:11.653',-0.440,0.420
'5:11.656',-0.435,0.410
'5:11.658',-0.415,0.395
'5:11.661',-0.410,0.395
'5:11.664',-0.405,0.390
'5:11.667',-0.375,0.405
'5:11.669',-0.340,0.415
'5:11.672',-0.295,0.405
'5:11.675',-0.305,0.390
'5:11.678',-0.290,0.385
'5:11.681',-0.245,0.385
'5:11.683',-0.205,0.395
'5:11.686',-0.185,0.405
'5:11.689',-0.170,0.405
'5:11.692',-0.180,0.370
'5:11.694',-0.150,0.360
'5:11.697',-0.130,0.360
'5:11.700',-0.120,0.350
'5:11.703',-0.110,0.355
'5:11.706',-0.115,0.340
'5:11.708',-0.100,0.275
'5:11.711',-0.095,0.215
'5:11.714',-0.120,0.160
'5:11.717',-0.110,0.135
'5:11.719',-0.095,0.090
'5:11.722',-0.075,0.055
'5:11.725',-0.095,-0.005
'5:11.728',-0.145,-0.025
'5:11.731',-0.170,-0.040
'5:11.733',-0.170,-0.030
'5:11.736',-0.165,-0.030
'5:11.739',-0.190,-0.035
'5:11.742',-0.220,-0.050
'5:11.744',-0.270,-0.065
'5:11.747',-0.280,-0.040
'5:11.750',-0.260,-0.015
'5:11.753',-0.235,0.005
'5:11.756',-0.250,0.015
'5:11.758',-0.275,0.005
'5:11.761',-0.275,0.005
'5:11.764',-0.280,0.030
'5:11.767',-0.265,0.055
'5:11.769',-0.250,0.070
'5:11.772',-0.255,0.085
'5:11.775',-0.260,0.085
'5:11.778',-0.270,0.090
'5:11.781',-0.275,0.105
'5:11.783',-0.270,0.135
'5:11.786',-0.275,0.155
'5:11.789',-0.245,0.155
'5:11.792',-0.235,0.160
'5:11.794',-0.265,0.155
'5:11.797',-0.270,0.175
'5:11.800',-0.270,0.205
'5:11.803',-0.255,0.230
'5:11.806',-0.250,0.235
'5:11.808',-0.255,0.225
'5:11.811',-0.275,0.210
'5:11.814',-0.275,0.225
'5:11.817',-0.255,0.260
'5:11.819',-0.250,0.270
'5:11.822',-0.245,0.275
'5:11.825',-0.270,0.265
'5:11.828',-0.275,0.260
'5:11.831',-0.275,0.275
'5:11.833',-0.270,0.280
'5:11.836',-0.275,0.300
'5:11.839',-0.285,0.290
'5:11.842',-0.275,0.280
'5:11.844',-0.310,0.275
'5:11.847',-0.305,0.285
'5:11.850',-0.295,0.305
'5:11.853',-0.275,0.310
'5:11.856',-0.255,0.310
'5:11.858',-0.270,0.300
'5:11.861',-0.300,0.280
'5:11.864',-0.295,0.290
'5:11.867',-0.300,0.305
'5:11.869',-0.280,0.320
'5:11.872',-0.285,0.315
'5:11.875',-0.285,0.300
'5:11.878',-0.310,0.285
'5:11.881',-0.295,0.265
'5:11.883',-0.285,0.265
'5:11.886',-0.275,0.255
'5:11.889',-0.260,0.245
'5:11.892',-0.250,0.200
'5:11.894',-0.270,0.185
'5:11.897',-0.305,0.165
'5:11.900',-0.270,0.155
'5:11.903',-0.250,0.165
'5:11.906',-0.235,0.125
'5:11.908',-0.240,0.070
'5:11.911',-0.255,0.025
'5:11.914',-0.250,-0.005
'5:11.917',-0.235,0.000
'5:11.919',-0.235,0.000
'5:11.922',-0.250,-0.030
'5:11.925',-0.270,-0.055
'5:11.928',-0.290,-0.050
'5:11.931',-0.310,-0.045
'5:11.933',-0.305,-0.015
'5:11.936',-0.275,0.010
'5:11.939',-0.265,0.000
'5:11.942',-0.280,0.000
'5:11.944',-0.300,0.000
'5:11.947',-0.305,0.005
'5:11.950',-0.285,0.025
'5:11.953',-0.255,0.055
'5:11.956',-0.260,0.050
'5:11.958',-0.280,0.035
'5:11.961',-0.315,0.040
'5:11.964',-0.290,0.045
'5:11.967',-0.270,0.075
'5:11.969',-0.255,0.085
'5:11.972',-0.245,0.110
'5:11.975',-0.260,0.110
'5:11.978',-0.275,0.085
'5:11.981',-0.285,0.100
'5:11.983',-0.310,0.140
'5:11.986',-0.275,0.150
'5:11.989',-0.265,0.150
'5:11.992',-0.280,0.125
'5:11.994',-0.310,0.135
'5:11.997',-0.320,0.155
'5:12.000',-0.300,0.180
'5:12.003',-0.290,0.190
'5:12.006',-0.285,0.195
'5:12.008',-0.300,0.180
'5:12.011',-0.315,0.190
'5:12.014',-0.325,0.200
'5:12.017',-0.325,0.225
'5:12.019',-0.340,0.245
'5:12.022',-0.325,0.260
'5:12.025',-0.335,0.245
'5:12.028',-0.355,0.250
'5:12.031',-0.355,0.265
'5:12.033',-0.340,0.295
'5:12.036',-0.315,0.290
'5:12.039',-0.315,0.295
'5:12.042',-0.325,0.260
'5:12.044',-0.355,0.240
'5:12.047',-0.375,0.240
'5:12.050',-0.360,0.245
'5:12.053',-0.350,0.260
'5:12.056',-0.345,0.245
'5:12.058',-0.340,0.205
'5:12.061',-0.355,0.170
'5:12.064',-0.365,0.160
'5:12.067',-0.370,0.130
'5:12.069',-0.360,0.105
'5:12.072',-0.345,0.055
'5:12.075',-0.360,0.000
'5:12.078',-0.385,-0.050
'5:12.081',-0.385,-0.045
'5:12.083',-0.380,-0.040
'5:12.086',-0.355,-0.025
'5:12.089',-0.365,-0.030
'5:12.092',-0.385,-0.055
'5:12.094',-0.360,-0.050
'5:12.097',-0.370,-0.030
'5:12.100',-0.365,0.000
'5:12.103',-0.360,0.035
'5:12.106',-0.345,0.040
'5:12.108',-0.335,0.045
'5:12.111',-0.355,0.035
'5:12.114',-0.365,0.080
'5:12.117',-0.330,0.095
'5:12.119',-0.290,0.110
'5:12.122',-0.270,0.125
'5:12.125',-0.290,0.115
'5:12.128',-0.300,0.130
'5:12.131',-0.315,0.135
'5:12.133',-0.305,0.150
'5:12.136',-0.300,0.170
'5:12.139',-0.305,0.170
'5:12.142',-0.305,0.160
'5:12.144',-0.300,0.150
'5:12.147',-0.315,0.170
'5:12.150',-0.295,0.185
'5:12.153',-0.300,0.215
'5:12.156',-0.285,0.210
'5:12.158',-0.295,0.205
'5:12.161',-0.320,0.195
'5:12.164',-0.325,0.205
'5:12.167',-0.295,0.225
'5:12.169',-0.280,0.250
'5:12.172',-0.315,0.245
'5:12.175',-0.320,0.255
'5:12.178',-0.330,0.255
'5:12.181',-0.335,0.275
'5:12.183',-0.315,0.305
'5:12.186',-0.300,0.335
'5:12.189',-0.280,0.340
'5:12.192',-0.220,0.330
'5:12.194',-0.200,0.330
'5:12.197',-0.185,0.350
'5:12.200',-0.145,0.380
'5:12.203',-0.085,0.410
'5:12.206',-0.040,0.430
'5:12.208',-0.020,0.435
'5:12.211',-0.015,0.420
'5:12.214',-0.010,0.400
'5:12.217',0.015,0.375
'5:12.219',0.035,0.345
'5:12.222',0.090,0.270
'5:12.225',0.190,0.190
'5:12.228',0.270,0.090
'5:12.231',0.360,-0.010
'5:12.233',0.425,-0.090
'5:12.236',0.480,-0.180
'5:12.239',0.575,-0.240
'5:12.242',0.655,-0.295
'5:12.244',0.715,-0.360
'5:12.247',0.740,-0.425
'5:12.250',0.785,-0.500
'5:12.253',0.785,-0.575
'5:12.256',0.735,-0.660
'5:12.258',0.610,-0.685
'5:12.261',0.470,-0.670
'5:12.264',0.365,-0.635
'5:12.267',0.250,-0.565
'5:12.269',0.115,-0.485
'5:12.272',-0.055,-0.410
'5:12.275',-0.220,-0.345
'5:12.278',-0.345,-0.260
'5:12.281',-0.430,-0.185
'5:12.283',-0.470,-0.095
'5:12.286',-0.505,-0.035
'5:12.289',-0.510,-0.005
'5:12.292',-0.525,-0.010
'5:12.294',-0.550,0.015
'5:12.297',-0.570,0.045
'5:12.300',-0.565,0.080
'5:12.303',-0.580,0.105
'5:12.306',-0.580,0.130
'5:12.308',-0.605,0.125
'5:12.311',-0.635,0.150
'5:12.314',-0.670,0.170
'5:12.317',-0.655,0.185
'5:12.319',-0.650,0.220
'5:12.322',-0.650,0.230
'5:12.325',-0.655,0.220
'5:12.328',-0.670,0.225
'5:12.331',-0.700,0.260
'5:12.333',-0.680,0.290
'5:12.336',-0.670,0.330
'5:12.339',-0.670,0.315
'5:12.342',-0.685,0.310
'5:12.344',-0.715,0.325
'5:12.347',-0.710,0.350
'5:12.350',-0.700,0.365
'5:12.353',-0.690,0.390
'5:12.356',-0.695,0.395
'5:12.358',-0.705,0.375
'5:12.361',-0.695,0.380
'5:12.364',-0.685,0.380
'5:12.367',-0.680,0.380
'5:12.369',-0.680,0.385
'5:12.372',-0.685,0.395
'5:12.375',-0.675,0.370
'5:12.378',-0.690,0.350
'5:12.381',-0.690,0.355
'5:12.383',-0.685,0.360
'5:12.386',-0.680,0.360
'5:12.389',-0.665,0.330
'5:12.392',-0.655,0.260
'5:12.394',-0.645,0.215
'5:12.397',-0.630,0.155
'5:12.400',-0.615,0.125
'5:12.403',-0.585,0.090
'5:12.406',-0.575,0.070
'5:12.408',-0.590,0.025
'5:12.411',-0.595,0.015
'5:12.414',-0.605,0.015
'5:12.417',-0.575,0.030
'5:12.419',-0.550,0.040
'5:12.422',-0.545,0.045
'5:12.425',-0.550,0.030
'5:12.428',-0.560,0.035
'5:12.431',-0.545,0.050
'5:12.433',-0.520,0.070
'5:12.436',-0.525,0.085
'5:12.439',-0.505,0.090
'5:12.442',-0.510,0.080
'5:12.444',-0.530,0.095
'5:12.447',-0.550,0.125
'5:12.450',-0.525,0.135
'5:12.453',-0.515,0.160
'5:12.456',-0.480,0.160
'5:12.458',-0.475,0.175
'5:12.461',-0.495,0.170
'5:12.464',-0.495,0.210
'5:12.467',-0.480,0.240
'5:12.469',-0.430,0.270
'5:12.472',-0.405,0.290
'5:12.475',-0.410,0.300
'5:12.478',-0.405,0.310
'5:12.481',-0.395,0.315
'5:12.483',-0.370,0.345
'5:12.486',-0.370,0.360
'5:12.489',-0.340,0.365
'5:12.492',-0.340,0.370
'5:12.494',-0.360,0.365
'5:12.497',-0.385,0.345
'5:12.500',-0.360,0.370
'5:12.503',-0.325,0.390
'5:12.506',-0.320,0.380
'5:12.508',-0.340,0.360
'5:12.511',-0.355,0.345
'5:12.514',-0.360,0.350
'5:12.517',-0.345,0.360
'5:12.519',-0.350,0.365
'5:12.522',-0.345,0.355
'5:12.525',-0.360,0.320
'5:12.528',-0.360,0.315
'5:12.531',-0.360,0.285
'5:12.533',-0.375,0.280
'5:12.536',-0.355,0.275
'5:12.539',-0.330,0.260
'5:12.542',-0.335,0.210
'5:12.544',-0.340,0.190
'5:12.547',-0.355,0.160
'5:12.550',-0.335,0.140
'5:12.553',-0.305,0.130
'5:12.556',-0.295,0.095
'5:12.558',-0.310,0.055
'5:12.561',-0.325,0.010
'5:12.564',-0.325,0.010
'5:12.567',-0.310,0.005
'5:12.569',-0.290,0.030
'5:12.572',-0.295,0.015
'5:12.575',-0.300,-0.005
'5:12.578',-0.285,0.005
'5:12.581',-0.285,0.010
'5:12.583',-0.280,0.015
'5:12.586',-0.285,0.040
'5:12.589',-0.270,0.055
'5:12.592',-0.280,0.075
'5:12.594',-0.295,0.075
'5:12.597',-0.315,0.075
'5:12.600',-0.320,0.105
'5:12.603',-0.310,0.125
'5:12.606',-0.315,0.135
'5:12.608',-0.335,0.150
'5:12.611',-0.385,0.150
'5:12.614',-0.415,0.175
'5:12.617',-0.410,0.205
'5:12.619',-0.405,0.240
'5:12.622',-0.420,0.245
'5:12.625',-0.430,0.245
'5:12.628',-0.425,0.260
'5:12.631',-0.425,0.265
'5:12.633',-0.405,0.290
'5:12.636',-0.405,0.305
'5:12.639',-0.380,0.315
'5:12.642',-0.385,0.305
'5:12.644',-0.405,0.300
'5:12.647',-0.425,0.295
'5:12.650',-0.400,0.330
'5:12.653',-0.385,0.335
'5:12.656',-0.370,0.335
'5:12.658',-0.385,0.310
'5:12.661',-0.405,0.290
'5:12.664',-0.390,0.300
'5:12.667',-0.380,0.305
'5:12.669',-0.375,0.305
'5:12.672',-0.365,0.290
'5:12.675',-0.375,0.270
'5:12.678',-0.385,0.250
'5:12.681',-0.380,0.240
'5:12.683',-0.370,0.245
'5:12.686',-0.355,0.235
'5:12.689',-0.345,0.195
'5:12.692',-0.350,0.160
'5:12.694',-0.350,0.130
'5:12.697',-0.360,0.115
'5:12.700',-0.355,0.095
'5:12.703',-0.330,0.090
'5:12.706',-0.340,0.070
'5:12.708',-0.345,0.025
'5:12.711',-0.355,0.015
'5:12.714',-0.355,0.005
'5:12.717',-0.360,0.010
'5:12.719',-0.350,0.020
'5:12.722',-0.350,0.015
'5:12.725',-0.360,-0.005
'5:12.728',-0.370,0.000
'5:12.731',-0.370,-0.010
'5:12.733',-0.375,0.000
'5:12.736',-0.370,0.030
'5:12.739',-0.345,0.020
'5:12.742',-0.360,0.005
'5:12.744',-0.390,-0.005
'5:12.747',-0.385,0.025
'5:12.750',-0.370,0.035
'5:12.753',-0.370,0.065
'5:12.756',-0.365,0.070
'5:12.758',-0.385,0.065
'5:12.761',-0.390,0.050
'5:12.764',-0.390,0.070
'5:12.767',-0.395,0.085
'5:12.769',-0.400,0.110
'5:12.772',-0.405,0.115
'5:12.775',-0.410,0.090
'5:12.778',-0.425,0.085
'5:12.781',-0.450,0.115
'5:12.783',-0.470,0.115
'5:12.786',-0.480,0.135
'5:12.789',-0.470,0.155
'5:12.792',-0.475,0.145
'5:12.794',-0.480,0.145
'5:12.797',-0.495,0.160
'5:12.800',-0.495,0.190
'5:12.803',-0.490,0.200
'5:12.806',-0.480,0.210
'5:12.808',-0.455,0.185
'5:12.811',-0.475,0.190
'5:12.814',-0.475,0.205
'5:12.817',-0.480,0.220
'5:12.819',-0.470,0.235
'5:12.822',-0.455,0.230
'5:12.825',-0.475,0.225
'5:12.828',-0.485,0.215
'5:12.831',-0.495,0.220
'5:12.833',-0.475,0.230
'5:12.836',-0.455,0.255
'5:12.839',-0.470,0.260
'5:12.842',-0.475,0.250
'5:12.844',-0.520,0.245
'5:12.847',-0.490,0.255
'5:12.850',-0.480,0.265
'5:12.853',-0.470,0.265
'5:12.856',-0.475,0.245
'5:12.858',-0.465,0.215
'5:12.861',-0.470,0.200
'5:12.864',-0.455,0.185
'5:12.867',-0.435,0.195
'5:12.869',-0.435,0.200
'5:12.872',-0.425,0.165
'5:12.875',-0.415,0.130
'5:12.878',-0.430,0.105
'5:12.881',-0.445,0.100
'5:12.883',-0.435,0.095
'5:12.886',-0.425,0.105
'5:12.889',-0.415,0.110
'5:12.892',-0.410,0.075
'5:12.894',-0.420,0.065
'5:12.897',-0.430,0.060
'5:12.900',-0.425,0.080
'5:12.903',-0.405,0.110
'5:12.906',-0.395,0.105
'5:12.908',-0.400,0.100
'5:12.911',-0.415,0.100
'5:12.914',-0.400,0.095
'5:12.917',-0.385,0.130
'5:12.919',-0.385,0.155
'5:12.922',-0.390,0.150
'5:12.925',-0.400,0.145
'5:12.928',-0.405,0.130
'5:12.931',-0.405,0.145
'5:12.933',-0.385,0.160
'5:12.936',-0.395,0.200
'5:12.939',-0.395,0.195
'5:12.942',-0.410,0.175
'5:12.944',-0.410,0.190
'5:12.947',-0.415,0.185
'5:12.950',-0.410,0.210
'5:12.953',-0.390,0.215
'5:12.956',-0.365,0.205
'5:12.958',-0.380,0.195
'5:12.961',-0.405,0.185
'5:12.964',-0.415,0.185
'5:12.967',-0.410,0.195
'5:12.969',-0.405,0.210
'5:12.972',-0.410,0.215
'5:12.975',-0.445,0.170
'5:12.978',-0.455,0.165
'5:12.981',-0.450,0.175
'5:12.983',-0.445,0.195
'5:12.986',-0.445,0.220
'5:12.989',-0.445,0.195
'5:12.992',-0.445,0.200
'5:12.994',-0.455,0.175
'5:12.997',-0.450,0.175
'5:13.000',-0.450,0.185
'5:13.003',-0.435,0.195
'5:13.006',-0.430,0.190
'5:13.008',-0.430,0.175
'5:13.011',-0.445,0.165
'5:13.014',-0.450,0.155
'5:13.017',-0.430,0.170
'5:13.019',-0.405,0.165
'5:13.022',-0.385,0.130
'5:13.025',-0.390,0.100
'5:13.028',-0.410,0.070
'5:13.031',-0.415,0.060
'5:13.033',-0.385,0.060
'5:13.036',-0.380,0.055
'5:13.039',-0.400,0.030
'5:13.042',-0.390,0.005
'5:13.044',-0.385,-0.015
'5:13.047',-0.380,-0.015
'5:13.050',-0.390,0.010
'5:13.053',-0.385,0.020
'5:13.056',-0.375,0.010
'5:13.058',-0.385,0.005
'5:13.061',-0.380,0.010
'5:13.064',-0.385,0.010
'5:13.067',-0.380,0.040
'5:13.069',-0.370,0.050
'5:13.072',-0.355,0.050
'5:13.075',-0.355,0.050
'5:13.078',-0.375,0.045
'5:13.081',-0.375,0.070
'5:13.083',-0.360,0.100
'5:13.086',-0.340,0.115
'5:13.089',-0.330,0.130
'5:13.092',-0.340,0.135
'5:13.094',-0.360,0.130
'5:13.097',-0.340,0.155
'5:13.100',-0.310,0.175
'5:13.103',-0.315,0.190
'5:13.106',-0.320,0.185
'5:13.108',-0.315,0.180
'5:13.111',-0.310,0.200
'5:13.114',-0.340,0.200
'5:13.117',-0.320,0.210
'5:13.119',-0.310,0.230
'5:13.122',-0.305,0.225
'5:13.125',-0.330,0.215
'5:13.128',-0.340,0.220
'5:13.131',-0.335,0.225
'5:13.133',-0.295,0.255
'5:13.136',-0.265,0.290
'5:13.139',-0.280,0.265
'5:13.142',-0.295,0.265
'5:13.144',-0.280,0.270
'5:13.147',-0.255,0.305
'5:13.150',-0.225,0.325
'5:13.153',-0.200,0.335
'5:13.156',-0.160,0.310
'5:13.158',-0.125,0.260
'5:13.161',-0.095,0.225
'5:13.164',-0.015,0.185
'5:13.167',0.120,0.135
'5:13.169',0.240,0.070
'5:13.172',0.360,-0.030
'5:13.175',0.415,-0.130
'5:13.178',0.500,-0.205
'5:13.181',0.600,-0.250
'5:13.183',0.730,-0.280
'5:13.186',0.810,-0.330
'5:13.189',0.850,-0.430
'5:13.192',0.820,-0.520
'5:13.194',0.725,-0.570
'5:13.197',0.590,-0.560
'5:13.200',0.485,-0.520
'5:13.203',0.355,-0.460
'5:13.206',0.185,-0.435
'5:13.208',-0.005,-0.410
'5:13.211',-0.165,-0.380
'5:13.214',-0.290,-0.305
'5:13.217',-0.395,-0.230
'5:13.219',-0.465,-0.170
'5:13.222',-0.485,-0.150
'5:13.225',-0.515,-0.140
'5:13.228',-0.545,-0.120
'5:13.231',-0.560,-0.100
'5:13.233',-0.565,-0.070
'5:13.236',-0.580,-0.040
'5:13.239',-0.595,-0.020
'5:13.242',-0.610,-0.010
'5:13.244',-0.630,0.000
'5:13.247',-0.630,0.010
'5:13.250',-0.635,0.030
'5:13.253',-0.625,0.060
'5:13.256',-0.625,0.055
'5:13.258',-0.630,0.055
'5:13.261',-0.655,0.070
'5:13.264',-0.660,0.085
'5:13.267',-0.650,0.120
'5:13.269',-0.630,0.130
'5:13.272',-0.610,0.130
'5:13.275',-0.625,0.115
'5:13.278',-0.660,0.105
'5:13.281',-0.655,0.115
'5:13.283',-0.650,0.125
'5:13.286',-0.645,0.150
'5:13.289',-0.655,0.145
'5:13.292',-0.665,0.140
'5:13.294',-0.680,0.145
'5:13.297',-0.685,0.155
'5:13.300',-0.675,0.175
'5:13.303',-0.665,0.200
'5:13.306',-0.660,0.195
'5:13.308',-0.665,0.195
'5:13.311',-0.675,0.195
'5:13.314',-0.675,0.215
'5:13.317',-0.665,0.240
'5:13.319',-0.650,0.275
'5:13.322',-0.640,0.270
'5:13.325',-0.645,0.260
'5:13.328',-0.660,0.255
'5:13.331',-0.640,0.255
'5:13.333',-0.620,0.270
'5:13.336',-0.610,0.265
'5:13.339',-0.590,0.260
'5:13.342',-0.610,0.230
'5:13.344',-0.605,0.200
'5:13.347',-0.590,0.215
'5:13.350',-0.585,0.220
'5:13.353',-0.570,0.220
'5:13.356',-0.555,0.210
'5:13.358',-0.550,0.205
'5:13.361',-0.550,0.190
'5:13.364',-0.555,0.210
'5:13.367',-0.540,0.210
'5:13.369',-0.515,0.210
'5:13.372',-0.495,0.210
'5:13.375',-0.480,0.185
'5:13.378',-0.490,0.180
'5:13.381',-0.490,0.175
'5:13.383',-0.460,0.185
'5:13.386',-0.435,0.215
'5:13.389',-0.410,0.210
'5:13.392',-0.410,0.175
'5:13.394',-0.425,0.170
'5:13.397',-0.390,0.170
'5:13.400',-0.365,0.190
'5:13.403',-0.350,0.205
'5:13.406',-0.325,0.195
'5:13.408',-0.320,0.185
'5:13.411',-0.310,0.180
'5:13.414',-0.310,0.190
'5:13.417',-0.290,0.195
'5:13.419',-0.275,0.215
'5:13.422',-0.255,0.200
'5:13.425',-0.265,0.195
'5:13.428',-0.265,0.185
'5:13.431',-0.265,0.180
'5:13.433',-0.255,0.190
'5:13.436',-0.245,0.205
'5:13.439',-0.260,0.195
'5:13.442',-0.270,0.180
'5:13.444',-0.275,0.180
'5:13.447',-0.300,0.180
'5:13.450',-0.280,0.210
'5:13.453',-0.260,0.225
'5:13.456',-0.255,0.205
'5:13.458',-0.255,0.190
'5:13.461',-0.280,0.180
'5:13.464',-0.295,0.180
'5:13.467',-0.295,0.200
'5:13.469',-0.265,0.210
'5:13.472',-0.270,0.195
'5:13.475',-0.285,0.185
'5:13.478',-0.300,0.155
'5:13.481',-0.300,0.155
'5:13.483',-0.310,0.160
'5:13.486',-0.285,0.165
'5:13.489',-0.295,0.140
'5:13.492',-0.320,0.105
'5:13.494',-0.340,0.080
'5:13.497',-0.330,0.055
'5:13.500',-0.315,0.045
'5:13.503',-0.295,0.010
'5:13.506',-0.310,-0.030
'5:13.508',-0.325,-0.060
'5:13.511',-0.355,-0.090
'5:13.514',-0.365,-0.090
'5:13.517',-0.360,-0.095
'5:13.519',-0.355,-0.090
'5:13.522',-0.345,-0.090
'5:13.525',-0.350,-0.095
'5:13.528',-0.400,-0.090
'5:13.531',-0.410,-0.085
'5:13.533',-0.385,-0.040
'5:13.536',-0.370,-0.025
'5:13.539',-0.390,-0.030
'5:13.542',-0.400,-0.030
'5:13.544',-0.415,-0.025
'5:13.547',-0.425,-0.025
'5:13.550',-0.400,0.010
'5:13.553',-0.400,0.035
'5:13.556',-0.415,0.035
'5:13.558',-0.430,0.040
'5:13.561',-0.440,0.045
'5:13.564',-0.445,0.070
'5:13.567',-0.445,0.085
'5:13.569',-0.430,0.105
'5:13.572',-0.415,0.100
'5:13.575',-0.425,0.095
'5:13.578',-0.450,0.100
'5:13.581',-0.435,0.110
'5:13.583',-0.415,0.125
'5:13.586',-0.395,0.145
'5:13.589',-0.405,0.135
'5:13.592',-0.435,0.115
'5:13.594',-0.445,0.115
'5:13.597',-0.460,0.130
'5:13.600',-0.435,0.150
'5:13.603',-0.415,0.165
'5:13.606',-0.405,0.155
'5:13.608',-0.400,0.155
'5:13.611',-0.395,0.155
'5:13.614',-0.375,0.155
'5:13.617',-0.380,0.160
'5:13.619',-0.365,0.195
'5:13.622',-0.335,0.175
'5:13.625',-0.335,0.165
'5:13.628',-0.355,0.140
'5:13.631',-0.360,0.140
'5:13.633',-0.330,0.160
'5:13.636',-0.305,0.160
'5:13.639',-0.300,0.120
'5:13.642',-0.300,0.100
'5:13.644',-0.295,0.070
'5:13.647',-0.285,0.055
'5:13.650',-0.285,0.070
'5:13.653',-0.270,0.070
'5:13.656',-0.260,0.045
'5:13.658',-0.240,0.025
'5:13.661',-0.235,0.010
'5:13.664',-0.230,0.015
'5:13.667',-0.205,0.055
'5:13.669',-0.180,0.075
'5:13.672',-0.190,0.090
'5:13.675',-0.190,0.075
'5:13.678',-0.185,0.060
'5:13.681',-0.125,0.065
'5:13.683',-0.025,0.065
'5:13.686',0.050,0.025
'5:13.689',0.145,-0.035
'5:13.692',0.270,-0.125
'5:13.694',0.425,-0.215
'5:13.697',0.615,-0.305
'5:13.700',0.860,-0.415
'5:13.703',1.050,-0.475
'5:13.706',1.155,-0.530
'5:13.708',1.200,-0.575
'5:13.711',1.255,-0.610
'5:13.714',1.325,-0.630
'5:13.717',1.385,-0.660
'5:13.719',1.415,-0.705
'5:13.722',1.370,-0.715
'5:13.725',1.255,-0.720
'5:13.728',1.110,-0.695
'5:13.731',0.960,-0.640
'5:13.733',0.785,-0.555
'5:13.736',0.580,-0.465
'5:13.739',0.325,-0.385
'5:13.742',0.080,-0.320
'5:13.744',-0.125,-0.245
'5:13.747',-0.330,-0.165
'5:13.750',-0.475,-0.065
