'Elapsed time','MLII','V1'
'hh:mm:ss.mmm','mV','mV'
'6:00.000',-0.285,0.005
'6:00.003',-0.280,0.000
'6:00.006',-0.290,-0.040
'6:00.008',-0.300,-0.060
'6:00.011',-0.290,-0.045
'6:00.014',-0.280,-0.025
'6:00.017',-0.265,-0.020
'6:00.019',-0.260,-0.030
'6:00.022',-0.265,-0.040
'6:00.025',-0.265,-0.035
'6:00.028',-0.250,-0.030
'6:00.031',-0.240,0.000
'6:00.033',-0.235,0.005
'6:00.036',-0.230,0.000
'6:00.039',-0.230,-0.005
'6:00.042',-0.240,0.005
'6:00.044',-0.230,0.015
'6:00.047',-0.210,0.030
'6:00.050',-0.205,0.045
'6:00.053',-0.215,0.040
'6:00.056',-0.235,0.035
'6:00.058',-0.225,0.045
'6:00.061',-0.230,0.060
'6:00.064',-0.250,0.080
'6:00.067',-0.240,0.090
'6:00.069',-0.225,0.090
'6:00.072',-0.225,0.075
'6:00.075',-0.230,0.085
'6:00.078',-0.225,0.105
'6:00.081',-0.220,0.120
'6:00.083',-0.205,0.130
'6:00.086',-0.210,0.105
'6:00.089',-0.220,0.105
'6:00.092',-0.225,0.105
'6:00.094',-0.225,0.110
'6:00.097',-0.230,0.115
'6:00.100',-0.210,0.120
'6:00.103',-0.210,0.120
'6:00.106',-0.215,0.100
'6:00.108',-0.220,0.105
'6:00.111',-0.210,0.105
'6:00.114',-0.205,0.110
'6:00.117',-0.190,0.110
'6:00.119',-0.185,0.075
'6:00.122',-0.190,0.045
'6:00.125',-0.205,0.035
'6:00.128',-0.200,0.035
'6:00.131',-0.190,0.035
'6:00.133',-0.195,0.020
'6:00.136',-0.185,0.015
'6:00.139',-0.190,0.000
'6:00.142',-0.205,0.005
'6:00.144',-0.210,0.015
'6:00.147',-0.200,0.020
'6:00.150',-0.200,0.010
'6:00.153',-0.205,0.015
'6:00.156',-0.220,0.005
'6:00.158',-0.220,0.010
'6:00.161',-0.210,0.020
'6:00.164',-0.190,0.020
'6:00.167',-0.190,0.030
'6:00.169',-0.195,0.040
'6:00.172',-0.210,0.025
'6:00.175',-0.220,0.025
'6:00.178',-0.215,0.030
'6:00.181',-0.210,0.055
'6:00.183',-0.205,0.060
'6:00.186',-0.210,0.050
'6:00.189',-0.220,0.055
'6:00.192',-0.220,0.055
'6:00.194',-0.240,0.060
'6:00.197',-0.230,0.090
'6:00.200',-0.230,0.090
'6:00.203',-0.220,0.090
'6:00.206',-0.220,0.075
'6:00.208',-0.225,0.075
'6:00.211',-0.220,0.090
'6:00.214',-0.225,0.110
'6:00.217',-0.210,0.115
'6:00.219',-0.220,0.100
'6:00.222',-0.220,0.095
'6:00.225',-0.225,0.100
'6:00.228',-0.230,0.095
'6:00.231',-0.220,0.090
'6:00.233',-0.205,0.090
'6:00.236',-0.215,0.090
'6:00.239',-0.230,0.085
'6:00.242',-0.225,0.080
'6:00.244',-0.240,0.070
'6:00.247',-0.235,0.080
'6:00.250',-0.205,0.070
'6:00.253',-0.185,0.055
'6:00.256',-0.180,0.030
'6:00.258',-0.205,0.015
'6:00.261',-0.210,0.030
'6:00.264',-0.195,0.025
'6:00.267',-0.190,0.010
'6:00.269',-0.195,0.010
'6:00.272',-0.190,0.020
'6:00.275',-0.220,0.015
'6:00.278',-0.200,0.015
'6:00.281',-0.185,0.025
'6:00.283',-0.200,0.030
'6:00.286',-0.190,0.030
'6:00.289',-0.205,0.015
'6:00.292',-0.220,0.015
'6:00.294',-0.220,0.015
'6:00.297',-0.220,0.045
'6:00.300',-0.210,0.045
'6:00.303',-0.230,0.040
'6:00.306',-0.225,0.025
'6:00.308',-0.230,0.025
'6:00.311',-0.230,0.040
'6:00.314',-0.225,0.045
'6:00.317',-0.215,0.055
'6:00.319',-0.235,0.050
'6:00.322',-0.225,0.045
'6:00.325',-0.235,0.055
'6:00.328',-0.230,0.070
'6:00.331',-0.225,0.080
'6:00.333',-0.220,0.085
'6:00.336',-0.225,0.070
'6:00.339',-0.220,0.075
'6:00.342',-0.255,0.070
'6:00.344',-0.255,0.090
'6:00.347',-0.245,0.115
'6:00.350',-0.230,0.110
'6:00.353',-0.220,0.110
'6:00.356',-0.215,0.100
'6:00.358',-0.230,0.105
'6:00.361',-0.230,0.105
'6:00.364',-0.225,0.115
'6:00.367',-0.210,0.115
'6:00.369',-0.210,0.075
'6:00.372',-0.230,0.030
'6:00.375',-0.220,0.020
'6:00.378',-0.205,0.020
'6:00.381',-0.195,0.015
'6:00.383',-0.175,0.005
'6:00.386',-0.180,-0.005
'6:00.389',-0.185,-0.020
'6:00.392',-0.190,-0.010
'6:00.394',-0.200,0.010
'6:00.397',-0.190,0.025
'6:00.400',-0.160,0.005
'6:00.403',-0.105,-0.010
'6:00.406',-0.030,-0.035
'6:00.408',0.085,-0.060
'6:00.411',0.235,-0.075
'6:00.414',0.365,-0.105
'6:00.417',0.480,-0.145
'6:00.419',0.595,-0.180
'6:00.422',0.730,-0.190
'6:00.425',0.835,-0.240
'6:00.428',0.900,-0.260
'6:00.431',0.905,-0.285
'6:00.433',0.860,-0.305
'6:00.436',0.785,-0.300
'6:00.439',0.700,-0.285
'6:00.442',0.585,-0.240
'6:00.444',0.405,-0.180
'6:00.447',0.170,-0.115
'6:00.450',-0.010,-0.075
'6:00.453',-0.125,-0.050
'6:00.456',-0.160,-0.030
'6:00.458',-0.215,-0.010
'6:00.461',-0.250,0.020
'6:00.464',-0.285,0.045
'6:00.467',-0.295,0.065
'6:00.469',-0.315,0.060
'6:00.472',-0.320,0.055
'6:00.475',-0.330,0.065
'6:00.478',-0.340,0.080
'6:00.481',-0.340,0.100
'6:00.483',-0.340,0.095
'6:00.486',-0.340,0.090
'6:00.489',-0.355,0.070
'6:00.492',-0.355,0.075
'6:00.494',-0.350,0.090
'6:00.497',-0.360,0.090
'6:00.500',-0.335,0.105
'6:00.503',-0.375,0.090
'6:00.506',-0.365,0.080
'6:00.508',-0.370,0.070
'6:00.511',-0.360,0.070
'6:00.514',-0.350,0.060
'6:00.517',-0.350,0.060
'6:00.519',-0.345,0.050
'6:00.522',-0.365,0.050
'6:00.525',-0.370,0.040
'6:00.528',-0.365,0.065
'6:00.531',-0.365,0.075
'6:00.533',-0.340,0.075
'6:00.536',-0.340,0.065
'6:00.539',-0.330,0.055
'6:00.542',-0.360,0.060
'6:00.544',-0.360,0.070
'6:00.547',-0.350,0.085
'6:00.550',-0.350,0.090
'6:00.553',-0.350,0.070
'6:00.556',-0.360,0.065
'6:00.558',-0.360,0.055
'6:00.561',-0.360,0.080
'6:00.564',-0.360,0.075
'6:00.567',-0.350,0.080
'6:00.569',-0.355,0.080
'6:00.572',-0.360,0.075
'6:00.575',-0.380,0.065
'6:00.578',-0.390,0.080
'6:00.581',-0.370,0.085
'6:00.583',-0.355,0.095
'6:00.586',-0.365,0.070
'6:00.589',-0.370,0.060
'6:00.592',-0.390,0.060
'6:00.594',-0.395,0.080
'6:00.597',-0.380,0.095
'6:00.600',-0.370,0.095
'6:00.603',-0.360,0.095
'6:00.606',-0.380,0.085
'6:00.608',-0.385,0.075
'6:00.611',-0.380,0.080
'6:00.614',-0.380,0.110
'6:00.617',-0.360,0.095
'6:00.619',-0.355,0.100
'6:00.622',-0.370,0.070
'6:00.625',-0.375,0.065
'6:00.628',-0.370,0.055
'6:00.631',-0.370,0.055
'6:00.633',-0.365,0.060
'6:00.636',-0.365,0.060
'6:00.639',-0.385,0.040
'6:00.642',-0.380,0.055
'6:00.644',-0.370,0.070
'6:00.647',-0.345,0.080
'6:00.650',-0.340,0.080
'6:00.653',-0.335,0.075
'6:00.656',-0.345,0.050
'6:00.658',-0.345,0.045
'6:00.661',-0.330,0.040
'6:00.664',-0.315,0.055
'6:00.667',-0.295,0.055
'6:00.669',-0.295,0.040
'6:00.672',-0.290,0.045
'6:00.675',-0.290,0.025
'6:00.678',-0.280,0.050
'6:00.681',-0.265,0.055
'6:00.683',-0.245,0.065
'6:00.686',-0.225,0.060
'6:00.689',-0.235,0.055
'6:00.692',-0.245,0.055
'6:00.694',-0.225,0.080
'6:00.697',-0.200,0.090
'6:00.700',-0.185,0.080
'6:00.703',-0.190,0.065
'6:00.706',-0.185,0.065
'6:00.708',-0.185,0.060
'6:00.711',-0.200,0.075
'6:00.714',-0.180,0.090
'6:00.717',-0.165,0.090
'6:00.719',-0.180,0.085
'6:00.722',-0.185,0.065
'6:00.725',-0.195,0.070
'6:00.728',-0.195,0.075
'6:00.731',-0.180,0.080
'6:00.733',-0.195,0.085
'6:00.736',-0.195,0.075
'6:00.739',-0.195,0.070
'6:00.742',-0.215,0.070
'6:00.744',-0.200,0.105
'6:00.747',-0.200,0.095
'6:00.750',-0.185,0.100
'6:00.753',-0.190,0.095
'6:00.756',-0.205,0.100
'6:00.758',-0.220,0.100
'6:00.761',-0.210,0.115
'6:00.764',-0.210,0.140
'6:00.767',-0.200,0.145
'6:00.769',-0.215,0.130
'6:00.772',-0.230,0.125
'6:00.775',-0.240,0.135
'6:00.778',-0.255,0.140
'6:00.781',-0.245,0.155
'6:00.783',-0.225,0.160
'6:00.786',-0.240,0.140
'6:00.789',-0.250,0.120
'6:00.792',-0.255,0.080
'6:00.794',-0.245,0.055
'6:00.797',-0.210,0.065
'6:00.800',-0.210,0.060
'6:00.803',-0.205,0.055
'6:00.806',-0.215,0.035
'6:00.808',-0.215,0.030
'6:00.811',-0.210,0.040
'6:00.814',-0.195,0.040
'6:00.817',-0.200,0.040
'6:00.819',-0.185,0.020
'6:00.822',-0.195,0.010
'6:00.825',-0.200,0.015
'6:00.828',-0.205,0.025
'6:00.831',-0.185,0.035
'6:00.833',-0.175,0.040
'6:00.836',-0.180,0.030
'6:00.839',-0.185,0.025
'6:00.842',-0.180,0.025
'6:00.844',-0.170,0.045
'6:00.847',-0.165,0.065
'6:00.850',-0.150,0.050
'6:00.853',-0.150,0.045
'6:00.856',-0.155,0.040
'6:00.858',-0.175,0.045
'6:00.861',-0.185,0.055
'6:00.864',-0.165,0.070
'6:00.867',-0.150,0.060
'6:00.869',-0.150,0.045
'6:00.872',-0.160,0.035
'6:00.875',-0.180,0.035
'6:00.878',-0.195,0.050
'6:00.881',-0.180,0.060
'6:00.883',-0.170,0.055
'6:00.886',-0.175,0.045
'6:00.889',-0.200,0.040
'6:00.892',-0.210,0.035
'6:00.894',-0.220,0.055
'6:00.897',-0.195,0.050
'6:00.900',-0.195,0.060
'6:00.903',-0.195,0.065
'6:00.906',-0.210,0.050
'6:00.908',-0.215,0.045
'6:00.911',-0.225,0.065
'6:00.914',-0.210,0.080
'6:00.917',-0.210,0.095
'6:00.919',-0.225,0.075
'6:00.922',-0.235,0.075
'6:00.925',-0.255,0.070
'6:00.928',-0.250,0.095
'6:00.931',-0.250,0.095
'6:00.933',-0.240,0.110
'6:00.936',-0.240,0.090
'6:00.939',-0.245,0.075
'6:00.942',-0.235,0.055
'6:00.944',-0.230,0.055
'6:00.947',-0.215,0.060
'6:00.950',-0.185,0.050
'6:00.953',-0.200,0.050
'6:00.956',-0.205,0.030
'6:00.958',-0.210,0.025
'6:00.961',-0.210,0.025
'6:00.964',-0.195,0.030
'6:00.967',-0.195,0.030
'6:00.969',-0.185,0.035
'6:00.972',-0.195,0.020
'6:00.975',-0.195,0.020
'6:00.978',-0.190,0.020
'6:00.981',-0.185,0.040
'6:00.983',-0.170,0.050
'6:00.986',-0.155,0.040
'6:00.989',-0.175,0.025
'6:00.992',-0.185,0.025
'6:00.994',-0.175,0.035
'6:00.997',-0.175,0.055
'6:01.000',-0.160,0.045
'6:01.003',-0.175,0.035
'6:01.006',-0.160,0.035
'6:01.008',-0.185,0.040
'6:01.011',-0.170,0.045
'6:01.014',-0.170,0.045
'6:01.017',-0.165,0.060
'6:01.019',-0.170,0.045
'6:01.022',-0.185,0.040
'6:01.025',-0.190,0.025
'6:01.028',-0.200,0.035
'6:01.031',-0.200,0.045
'6:01.033',-0.190,0.050
'6:01.036',-0.185,0.025
'6:01.039',-0.195,0.020
'6:01.042',-0.205,0.025
'6:01.044',-0.205,0.035
'6:01.047',-0.195,0.040
'6:01.050',-0.185,0.060
'6:01.053',-0.195,0.055
'6:01.056',-0.205,0.040
'6:01.058',-0.225,0.030
'6:01.061',-0.225,0.055
'6:01.064',-0.225,0.060
'6:01.067',-0.220,0.060
'6:01.069',-0.225,0.055
'6:01.072',-0.245,0.060
'6:01.075',-0.260,0.040
'6:01.078',-0.260,0.035
'6:01.081',-0.235,0.045
'6:01.083',-0.200,0.035
'6:01.086',-0.190,0.025
'6:01.089',-0.190,0.005
'6:01.092',-0.200,0.015
'6:01.094',-0.175,0.030
'6:01.097',-0.175,0.040
'6:01.100',-0.155,0.040
'6:01.103',-0.155,0.040
'6:01.106',-0.165,0.020
'6:01.108',-0.155,0.020
'6:01.111',-0.160,0.030
'6:01.114',-0.155,0.035
'6:01.117',-0.155,0.040
'6:01.119',-0.145,0.035
'6:01.122',-0.130,0.000
'6:01.125',-0.070,-0.010
'6:01.128',0.035,-0.035
'6:01.131',0.170,-0.055
'6:01.133',0.305,-0.075
'6:01.136',0.425,-0.120
'6:01.139',0.525,-0.175
'6:01.142',0.650,-0.190
'6:01.144',0.785,-0.185
'6:01.147',0.905,-0.215
'6:01.150',0.985,-0.280
'6:01.153',1.005,-0.330
'6:01.156',0.960,-0.330
'6:01.158',0.885,-0.335
'6:01.161',0.800,-0.285
'6:01.164',0.675,-0.220
'6:01.167',0.470,-0.165
'6:01.169',0.215,-0.125
'6:01.172',0.010,-0.105
'6:01.175',-0.095,-0.075
'6:01.178',-0.120,-0.025
'6:01.181',-0.160,0.005
'6:01.183',-0.205,0.015
'6:01.186',-0.235,0.030
'6:01.189',-0.250,0.025
'6:01.192',-0.265,0.030
'6:01.194',-0.275,0.050
'6:01.197',-0.295,0.060
'6:01.200',-0.285,0.060
'6:01.203',-0.295,0.045
'6:01.206',-0.315,0.050
'6:01.208',-0.330,0.050
'6:01.211',-0.335,0.065
'6:01.214',-0.340,0.070
'6:01.217',-0.330,0.090
'6:01.219',-0.345,0.085
'6:01.222',-0.365,0.070
'6:01.225',-0.385,0.070
'6:01.228',-0.375,0.075
'6:01.231',-0.360,0.080
'6:01.233',-0.375,0.080
'6:01.236',-0.350,0.075
'6:01.239',-0.360,0.045
'6:01.242',-0.370,0.060
'6:01.244',-0.360,0.065
'6:01.247',-0.365,0.070
'6:01.250',-0.350,0.065
'6:01.253',-0.360,0.065
'6:01.256',-0.360,0.055
'6:01.258',-0.370,0.060
'6:01.261',-0.370,0.065
'6:01.264',-0.365,0.070
'6:01.267',-0.350,0.075
'6:01.269',-0.355,0.075
'6:01.272',-0.355,0.070
'6:01.275',-0.375,0.075
'6:01.278',-0.360,0.090
'6:01.281',-0.340,0.095
'6:01.283',-0.335,0.110
'6:01.286',-0.335,0.095
'6:01.289',-0.335,0.075
'6:01.292',-0.345,0.085
'6:01.294',-0.345,0.085
'6:01.297',-0.330,0.085
'6:01.300',-0.325,0.075
'6:01.303',-0.335,0.085
'6:01.306',-0.340,0.080
'6:01.308',-0.345,0.065
'6:01.311',-0.325,0.080
'6:01.314',-0.335,0.080
'6:01.317',-0.325,0.085
'6:01.319',-0.340,0.075
'6:01.322',-0.335,0.065
'6:01.325',-0.345,0.065
'6:01.328',-0.345,0.075
'6:01.331',-0.345,0.085
'6:01.333',-0.325,0.085
'6:01.336',-0.330,0.075
'6:01.339',-0.340,0.045
'6:01.342',-0.345,0.055
'6:01.344',-0.355,0.055
'6:01.347',-0.335,0.065
'6:01.350',-0.325,0.060
'6:01.353',-0.320,0.055
'6:01.356',-0.340,0.040
'6:01.358',-0.345,0.045
'6:01.361',-0.345,0.060
'6:01.364',-0.320,0.060
'6:01.367',-0.320,0.055
'6:01.369',-0.320,0.045
'6:01.372',-0.325,0.035
'6:01.375',-0.335,0.025
'6:01.378',-0.330,0.040
'6:01.381',-0.310,0.050
'6:01.383',-0.305,0.060
'6:01.386',-0.295,0.050
'6:01.389',-0.300,0.050
'6:01.392',-0.295,0.040
'6:01.394',-0.290,0.050
'6:01.397',-0.265,0.070
'6:01.400',-0.245,0.070
'6:01.403',-0.245,0.060
'6:01.406',-0.245,0.055
'6:01.408',-0.230,0.045
'6:01.411',-0.230,0.065
'6:01.414',-0.210,0.065
'6:01.417',-0.190,0.065
'6:01.419',-0.190,0.060
'6:01.422',-0.200,0.035
'6:01.425',-0.210,0.030
'6:01.428',-0.195,0.045
'6:01.431',-0.190,0.065
'6:01.433',-0.170,0.070
'6:01.436',-0.160,0.070
'6:01.439',-0.170,0.055
'6:01.442',-0.180,0.060
'6:01.444',-0.180,0.080
'6:01.447',-0.145,0.075
'6:01.450',-0.135,0.090
'6:01.453',-0.135,0.080
'6:01.456',-0.145,0.070
'6:01.458',-0.150,0.070
'6:01.461',-0.155,0.080
'6:01.464',-0.145,0.085
'6:01.467',-0.145,0.100
'6:01.469',-0.145,0.085
'6:01.472',-0.160,0.075
'6:01.475',-0.165,0.075
'6:01.478',-0.170,0.095
'6:01.481',-0.165,0.100
'6:01.483',-0.160,0.095
'6:01.486',-0.175,0.100
'6:01.489',-0.185,0.080
'6:01.492',-0.200,0.075
'6:01.494',-0.200,0.080
'6:01.497',-0.190,0.085
'6:01.500',-0.180,0.085
'6:01.503',-0.190,0.075
'6:01.506',-0.200,0.055
'6:01.508',-0.210,0.055
'6:01.511',-0.230,0.055
'6:01.514',-0.220,0.055
'6:01.517',-0.215,0.055
'6:01.519',-0.200,0.040
'6:01.522',-0.220,0.030
'6:01.525',-0.215,0.030
'6:01.528',-0.205,0.030
'6:01.531',-0.195,0.060
'6:01.533',-0.185,0.060
'6:01.536',-0.195,0.055
'6:01.539',-0.195,0.055
'6:01.542',-0.200,0.055
'6:01.544',-0.200,0.085
'6:01.547',-0.200,0.090
'6:01.550',-0.185,0.100
'6:01.553',-0.175,0.100
'6:01.556',-0.185,0.090
'6:01.558',-0.195,0.085
'6:01.561',-0.175,0.095
'6:01.564',-0.165,0.110
'6:01.567',-0.160,0.110
'6:01.569',-0.160,0.100
'6:01.572',-0.175,0.085
'6:01.575',-0.180,0.070
'6:01.578',-0.175,0.080
'6:01.581',-0.170,0.100
'6:01.583',-0.155,0.100
'6:01.586',-0.155,0.105
'6:01.589',-0.180,0.090
'6:01.592',-0.175,0.095
'6:01.594',-0.170,0.110
'6:01.597',-0.150,0.115
'6:01.600',-0.145,0.105
'6:01.603',-0.150,0.105
'6:01.606',-0.160,0.105
'6:01.608',-0.160,0.095
'6:01.611',-0.170,0.100
'6:01.614',-0.170,0.130
'6:01.617',-0.155,0.110
'6:01.619',-0.160,0.110
'6:01.622',-0.170,0.100
'6:01.625',-0.195,0.080
'6:01.628',-0.185,0.075
'6:01.631',-0.190,0.075
'6:01.633',-0.185,0.055
'6:01.636',-0.185,0.045
'6:01.639',-0.205,0.025
'6:01.642',-0.205,0.015
'6:01.644',-0.210,-0.005
'6:01.647',-0.200,0.010
'6:01.650',-0.195,0.005
'6:01.653',-0.205,-0.015
'6:01.656',-0.210,-0.025
'6:01.658',-0.220,-0.040
'6:01.661',-0.220,-0.020
'6:01.664',-0.205,0.005
'6:01.667',-0.200,0.010
'6:01.669',-0.205,0.000
'6:01.672',-0.220,0.015
'6:01.675',-0.220,0.015
'6:01.678',-0.220,0.045
'6:01.681',-0.200,0.075
'6:01.683',-0.190,0.090
'6:01.686',-0.190,0.080
'6:01.689',-0.195,0.075
'6:01.692',-0.195,0.080
'6:01.694',-0.195,0.105
'6:01.697',-0.180,0.115
'6:01.700',-0.160,0.115
'6:01.703',-0.170,0.120
'6:01.706',-0.170,0.105
'6:01.708',-0.175,0.105
'6:01.711',-0.170,0.105
'6:01.714',-0.150,0.125
'6:01.717',-0.140,0.120
'6:01.719',-0.150,0.115
'6:01.722',-0.155,0.090
'6:01.725',-0.170,0.095
'6:01.728',-0.160,0.095
'6:01.731',-0.155,0.115
'6:01.733',-0.135,0.110
'6:01.736',-0.145,0.115
'6:01.739',-0.145,0.115
'6:01.742',-0.160,0.120
'6:01.744',-0.150,0.120
'6:01.747',-0.135,0.135
'6:01.750',-0.125,0.120
'6:01.753',-0.130,0.120
'6:01.756',-0.145,0.100
'6:01.758',-0.155,0.110
'6:01.761',-0.145,0.110
'6:01.764',-0.145,0.125
'6:01.767',-0.135,0.120
'6:01.769',-0.165,0.115
'6:01.772',-0.160,0.110
'6:01.775',-0.175,0.105
'6:01.778',-0.180,0.110
'6:01.781',-0.170,0.115
'6:01.783',-0.160,0.105
'6:01.786',-0.175,0.090
'6:01.789',-0.190,0.070
'6:01.792',-0.195,0.055
'6:01.794',-0.195,0.055
'6:01.797',-0.180,0.045
'6:01.800',-0.180,0.025
'6:01.803',-0.185,0.000
'6:01.806',-0.200,-0.020
'6:01.808',-0.210,-0.030
'6:01.811',-0.210,-0.025
'6:01.814',-0.200,-0.010
'6:01.817',-0.185,-0.020
'6:01.819',-0.190,-0.025
'6:01.822',-0.200,-0.035
'6:01.825',-0.200,-0.030
'6:01.828',-0.210,-0.015
'6:01.831',-0.200,0.010
'6:01.833',-0.195,0.035
'6:01.836',-0.200,0.050
'6:01.839',-0.205,0.045
'6:01.842',-0.195,0.035
'6:01.844',-0.125,0.050
'6:01.847',-0.025,0.040
'6:01.850',0.100,0.025
'6:01.853',0.215,0.015
'6:01.856',0.325,-0.035
'6:01.858',0.415,-0.055
'6:01.861',0.520,-0.075
'6:01.864',0.665,-0.060
'6:01.867',0.810,-0.075
'6:01.869',0.920,-0.155
'6:01.872',0.980,-0.235
'6:01.875',0.980,-0.275
'6:01.878',0.950,-0.285
'6:01.881',0.920,-0.265
'6:01.883',0.855,-0.225
'6:01.886',0.730,-0.190
'6:01.889',0.535,-0.135
'6:01.892',0.300,-0.080
'6:01.894',0.085,-0.030
'6:01.897',-0.020,0.000
'6:01.900',-0.060,0.035
'6:01.903',-0.095,0.045
'6:01.906',-0.150,0.055
'6:01.908',-0.205,0.065
'6:01.911',-0.240,0.085
'6:01.914',-0.225,0.100
'6:01.917',-0.225,0.100
'6:01.919',-0.235,0.095
'6:01.922',-0.275,0.085
'6:01.925',-0.290,0.095
'6:01.928',-0.290,0.100
'6:01.931',-0.285,0.110
'6:01.933',-0.290,0.105
'6:01.936',-0.315,0.095
'6:01.939',-0.315,0.085
'6:01.942',-0.340,0.075
'6:01.944',-0.340,0.100
'6:01.947',-0.330,0.090
'6:01.950',-0.325,0.105
'6:01.953',-0.330,0.100
'6:01.956',-0.350,0.110
'6:01.958',-0.365,0.120
'6:01.961',-0.360,0.130
'6:01.964',-0.360,0.120
'6:01.967',-0.335,0.130
'6:01.969',-0.350,0.105
'6:01.972',-0.360,0.100
'6:01.975',-0.380,0.100
'6:01.978',-0.375,0.090
'6:01.981',-0.375,0.070
'6:01.983',-0.360,0.060
'6:01.986',-0.360,0.035
'6:01.989',-0.370,0.015
'6:01.992',-0.390,0.020
'6:01.994',-0.385,0.030
'6:01.997',-0.385,0.040
'6:02.000',-0.380,0.050
'6:02.003',-0.380,0.045
'6:02.006',-0.395,0.040
'6:02.008',-0.395,0.050
'6:02.011',-0.385,0.070
'6:02.014',-0.385,0.085
'6:02.017',-0.360,0.105
'6:02.019',-0.365,0.100
'6:02.022',-0.380,0.090
'6:02.025',-0.385,0.090
'6:02.028',-0.380,0.090
'6:02.031',-0.370,0.100
'6:02.033',-0.350,0.100
'6:02.036',-0.350,0.095
'6:02.039',-0.370,0.080
'6:02.042',-0.390,0.060
'6:02.044',-0.370,0.085
'6:02.047',-0.360,0.100
'6:02.050',-0.340,0.105
'6:02.053',-0.340,0.110
'6:02.056',-0.340,0.100
'6:02.058',-0.340,0.100
'6:02.061',-0.340,0.100
'6:02.064',-0.320,0.115
'6:02.067',-0.310,0.120
'6:02.069',-0.315,0.105
'6:02.072',-0.315,0.095
'6:02.075',-0.325,0.090
'6:02.078',-0.330,0.105
'6:02.081',-0.320,0.105
'6:02.083',-0.295,0.110
'6:02.086',-0.310,0.105
'6:02.089',-0.315,0.085
'6:02.092',-0.330,0.090
'6:02.094',-0.325,0.075
'6:02.097',-0.310,0.090
'6:02.100',-0.305,0.090
'6:02.103',-0.305,0.070
'6:02.106',-0.315,0.060
'6:02.108',-0.320,0.070
'6:02.111',-0.315,0.075
'6:02.114',-0.305,0.080
'6:02.117',-0.275,0.080
'6:02.119',-0.280,0.070
'6:02.122',-0.285,0.070
'6:02.125',-0.290,0.070
'6:02.128',-0.285,0.085
'6:02.131',-0.270,0.095
'6:02.133',-0.250,0.105
'6:02.136',-0.245,0.110
'6:02.139',-0.250,0.115
'6:02.142',-0.250,0.120
'6:02.144',-0.245,0.125
'6:02.147',-0.240,0.145
'6:02.150',-0.220,0.115
'6:02.153',-0.235,0.110
'6:02.156',-0.235,0.080
'6:02.158',-0.245,0.075
'6:02.161',-0.240,0.065
'6:02.164',-0.220,0.050
'6:02.167',-0.205,0.050
'6:02.169',-0.195,0.035
'6:02.172',-0.220,0.025
'6:02.175',-0.230,0.025
'6:02.178',-0.235,0.030
'6:02.181',-0.215,0.040
'6:02.183',-0.190,0.060
'6:02.186',-0.195,0.055
'6:02.189',-0.200,0.050
'6:02.192',-0.205,0.030
'6:02.194',-0.215,0.050
'6:02.197',-0.195,0.065
'6:02.200',-0.175,0.060
'6:02.203',-0.180,0.055
'6:02.206',-0.195,0.050
'6:02.208',-0.205,0.060
'6:02.211',-0.190,0.070
'6:02.214',-0.185,0.090
'6:02.217',-0.195,0.095
'6:02.219',-0.180,0.090
'6:02.222',-0.185,0.085
'6:02.225',-0.190,0.080
'6:02.228',-0.190,0.090
'6:02.231',-0.180,0.115
'6:02.233',-0.165,0.120
'6:02.236',-0.165,0.115
'6:02.239',-0.185,0.110
'6:02.242',-0.185,0.110
'6:02.244',-0.195,0.120
'6:02.247',-0.180,0.130
'6:02.250',-0.175,0.125
'6:02.253',-0.190,0.125
'6:02.256',-0.195,0.110
'6:02.258',-0.215,0.105
'6:02.261',-0.215,0.110
'6:02.264',-0.205,0.120
'6:02.267',-0.210,0.115
'6:02.269',-0.210,0.100
'6:02.272',-0.210,0.100
'6:02.275',-0.225,0.095
'6:02.278',-0.215,0.105
'6:02.281',-0.210,0.125
'6:02.283',-0.220,0.135
'6:02.286',-0.230,0.115
'6:02.289',-0.235,0.110
'6:02.292',-0.240,0.095
'6:02.294',-0.240,0.110
'6:02.297',-0.230,0.125
'6:02.300',-0.220,0.125
'6:02.303',-0.250,0.115
'6:02.306',-0.255,0.105
'6:02.308',-0.265,0.110
'6:02.311',-0.265,0.115
'6:02.314',-0.265,0.135
'6:02.317',-0.245,0.135
'6:02.319',-0.245,0.130
'6:02.322',-0.245,0.105
'6:02.325',-0.250,0.090
'6:02.328',-0.235,0.105
'6:02.331',-0.230,0.110
'6:02.333',-0.210,0.120
'6:02.336',-0.215,0.105
'6:02.339',-0.235,0.085
'6:02.342',-0.230,0.065
'6:02.344',-0.220,0.075
'6:02.347',-0.215,0.075
'6:02.350',-0.200,0.070
'6:02.353',-0.200,0.055
'6:02.356',-0.220,0.050
'6:02.358',-0.215,0.045
'6:02.361',-0.210,0.070
'6:02.364',-0.200,0.075
'6:02.367',-0.180,0.085
'6:02.369',-0.175,0.075
'6:02.372',-0.180,0.065
'6:02.375',-0.195,0.085
'6:02.378',-0.180,0.085
'6:02.381',-0.175,0.100
'6:02.383',-0.155,0.105
'6:02.386',-0.150,0.090
'6:02.389',-0.165,0.075
'6:02.392',-0.170,0.080
'6:02.394',-0.175,0.075
'6:02.397',-0.155,0.105
'6:02.400',-0.150,0.100
'6:02.403',-0.160,0.095
'6:02.406',-0.170,0.085
'6:02.408',-0.180,0.085
'6:02.411',-0.185,0.085
'6:02.414',-0.185,0.105
'6:02.417',-0.175,0.100
'6:02.419',-0.185,0.085
'6:02.422',-0.195,0.085
'6:02.425',-0.210,0.085
'6:02.428',-0.215,0.085
'6:02.431',-0.215,0.100
'6:02.433',-0.195,0.100
'6:02.436',-0.200,0.085
'6:02.439',-0.205,0.095
'6:02.442',-0.250,0.090
'6:02.444',-0.235,0.105
'6:02.447',-0.235,0.110
'6:02.450',-0.225,0.105
'6:02.453',-0.215,0.105
'6:02.456',-0.245,0.095
'6:02.458',-0.255,0.085
'6:02.461',-0.265,0.110
'6:02.464',-0.255,0.130
'6:02.467',-0.250,0.115
'6:02.469',-0.245,0.115
'6:02.472',-0.265,0.120
'6:02.475',-0.285,0.120
'6:02.478',-0.280,0.130
'6:02.481',-0.260,0.135
'6:02.483',-0.245,0.135
'6:02.486',-0.250,0.120
'6:02.489',-0.255,0.110
'6:02.492',-0.270,0.105
'6:02.494',-0.275,0.115
'6:02.497',-0.270,0.120
'6:02.500',-0.255,0.120
'6:02.503',-0.250,0.090
'6:02.506',-0.270,0.080
'6:02.508',-0.280,0.055
'6:02.511',-0.265,0.055
'6:02.514',-0.250,0.065
'6:02.517',-0.240,0.055
'6:02.519',-0.240,0.050
'6:02.522',-0.235,0.035
'6:02.525',-0.240,0.045
'6:02.528',-0.235,0.055
'6:02.531',-0.195,0.065
'6:02.533',-0.180,0.075
'6:02.536',-0.190,0.075
'6:02.539',-0.190,0.060
'6:02.542',-0.195,0.045
'6:02.544',-0.190,0.060
'6:02.547',-0.185,0.070
'6:02.550',-0.170,0.080
'6:02.553',-0.160,0.075
'6:02.556',-0.180,0.070
'6:02.558',-0.195,0.060
'6:02.561',-0.190,0.060
'6:02.564',-0.195,0.075
'6:02.567',-0.200,0.070
'6:02.569',-0.205,0.065
'6:02.572',-0.220,0.050
'6:02.575',-0.220,0.055
'6:02.578',-0.215,0.070
'6:02.581',-0.215,0.075
'6:02.583',-0.195,0.090
'6:02.586',-0.200,0.075
'6:02.589',-0.225,0.060
'6:02.592',-0.235,0.060
'6:02.594',-0.230,0.080
'6:02.597',-0.210,0.090
'6:02.600',-0.200,0.110
'6:02.603',-0.210,0.120
'6:02.606',-0.255,0.105
'6:02.608',-0.270,0.090
'6:02.611',-0.230,0.100
'6:02.614',-0.160,0.100
'6:02.617',-0.040,0.080
'6:02.619',0.090,0.060
'6:02.622',0.205,0.015
'6:02.625',0.325,-0.020
'6:02.628',0.450,-0.045
'6:02.631',0.590,-0.050
'6:02.633',0.720,-0.070
'6:02.636',0.810,-0.135
'6:02.639',0.845,-0.200
'6:02.642',0.835,-0.225
'6:02.644',0.775,-0.225
'6:02.647',0.730,-0.215
'6:02.650',0.650,-0.170
'6:02.653',0.480,-0.125
'6:02.656',0.245,-0.080
'6:02.658',0.005,-0.030
'6:02.661',-0.115,0.015
'6:02.664',-0.195,0.050
'6:02.667',-0.200,0.080
'6:02.669',-0.245,0.100
'6:02.672',-0.310,0.100
'6:02.675',-0.310,0.105
'6:02.678',-0.315,0.110
'6:02.681',-0.315,0.135
'6:02.683',-0.325,0.135
'6:02.686',-0.325,0.135
'6:02.689',-0.335,0.115
'6:02.692',-0.360,0.100
'6:02.694',-0.360,0.115
'6:02.697',-0.355,0.120
'6:02.700',-0.330,0.105
'6:02.703',-0.345,0.095
'6:02.706',-0.350,0.070
'6:02.708',-0.380,0.060
'6:02.711',-0.370,0.075
'6:02.714',-0.360,0.080
'6:02.717',-0.360,0.075
'6:02.719',-0.370,0.075
'6:02.722',-0.385,0.060
'6:02.725',-0.385,0.060
'6:02.728',-0.395,0.070
'6:02.731',-0.385,0.075
'6:02.733',-0.375,0.080
'6:02.736',-0.375,0.075
'6:02.739',-0.380,0.080
'6:02.742',-0.385,0.070
'6:02.744',-0.400,0.085
'6:02.747',-0.405,0.095
'6:02.750',-0.400,0.110
'6:02.753',-0.400,0.095
'6:02.756',-0.420,0.100
'6:02.758',-0.420,0.095
'6:02.761',-0.425,0.110
'6:02.764',-0.415,0.120
'6:02.767',-0.415,0.135
'6:02.769',-0.410,0.145
'6:02.772',-0.425,0.140
'6:02.775',-0.425,0.145
'6:02.778',-0.435,0.145
'6:02.781',-0.405,0.160
'6:02.783',-0.400,0.160
'6:02.786',-0.400,0.165
'6:02.789',-0.430,0.145
'6:02.792',-0.425,0.140
'6:02.794',-0.415,0.145
'6:02.797',-0.410,0.125
'6:02.800',-0.400,0.135
'6:02.803',-0.395,0.140
'6:02.806',-0.415,0.125
'6:02.808',-0.405,0.120
'6:02.811',-0.420,0.130
'6:02.814',-0.400,0.135
'6:02.817',-0.395,0.135
'6:02.819',-0.380,0.140
'6:02.822',-0.375,0.135
'6:02.825',-0.375,0.120
'6:02.828',-0.370,0.125
'6:02.831',-0.365,0.140
'6:02.833',-0.340,0.140
'6:02.836',-0.335,0.130
'6:02.839',-0.355,0.125
'6:02.842',-0.375,0.105
'6:02.844',-0.365,0.125
'6:02.847',-0.355,0.135
'6:02.850',-0.345,0.135
'6:02.853',-0.350,0.130
'6:02.856',-0.365,0.120
'6:02.858',-0.380,0.115
'6:02.861',-0.380,0.115
'6:02.864',-0.355,0.115
'6:02.867',-0.355,0.105
'6:02.869',-0.335,0.065
'6:02.872',-0.345,0.035
'6:02.875',-0.330,0.030
'6:02.878',-0.305,0.030
'6:02.881',-0.285,0.045
'6:02.883',-0.270,0.060
'6:02.886',-0.260,0.050
'6:02.889',-0.280,0.045
'6:02.892',-0.285,0.040
'6:02.894',-0.270,0.060
'6:02.897',-0.250,0.070
'6:02.900',-0.225,0.075
'6:02.903',-0.235,0.065
'6:02.906',-0.250,0.050
'6:02.908',-0.270,0.060
'6:02.911',-0.265,0.075
'6:02.914',-0.255,0.090
'6:02.917',-0.250,0.095
'6:02.919',-0.255,0.110
'6:02.922',-0.260,0.095
'6:02.925',-0.260,0.110
'6:02.928',-0.265,0.115
'6:02.931',-0.250,0.130
'6:02.933',-0.235,0.140
'6:02.936',-0.240,0.120
'6:02.939',-0.255,0.115
'6:02.942',-0.260,0.130
'6:02.944',-0.260,0.125
'6:02.947',-0.240,0.140
'6:02.950',-0.230,0.135
'6:02.953',-0.220,0.125
'6:02.956',-0.225,0.110
'6:02.958',-0.245,0.100
'6:02.961',-0.250,0.120
'6:02.964',-0.230,0.140
'6:02.967',-0.215,0.140
'6:02.969',-0.210,0.140
'6:02.972',-0.240,0.125
'6:02.975',-0.250,0.125
'6:02.978',-0.230,0.150
'6:02.981',-0.225,0.165
'6:02.983',-0.210,0.155
'6:02.986',-0.220,0.150
'6:02.989',-0.220,0.145
'6:02.992',-0.235,0.145
'6:02.994',-0.245,0.160
'6:02.997',-0.230,0.170
'6:03.000',-0.235,0.165
'6:03.003',-0.230,0.160
'6:03.006',-0.250,0.150
'6:03.008',-0.250,0.140
'6:03.011',-0.255,0.135
'6:03.014',-0.255,0.145
'6:03.017',-0.250,0.140
'6:03.019',-0.255,0.125
'6:03.022',-0.265,0.105
'6:03.025',-0.280,0.090
'6:03.028',-0.265,0.080
'6:03.031',-0.245,0.080
'6:03.033',-0.230,0.070
'6:03.036',-0.225,0.075
'6:03.039',-0.245,0.070
'6:03.042',-0.245,0.080
'6:03.044',-0.245,0.085
'6:03.047',-0.225,0.095
'6:03.050',-0.210,0.110
'6:03.053',-0.215,0.095
'6:03.056',-0.205,0.085
'6:03.058',-0.225,0.090
'6:03.061',-0.225,0.105
'6:03.064',-0.225,0.115
'6:03.067',-0.230,0.125
'6:03.069',-0.220,0.115
'6:03.072',-0.230,0.115
'6:03.075',-0.240,0.105
'6:03.078',-0.245,0.140
'6:03.081',-0.230,0.145
'6:03.083',-0.215,0.150
'6:03.086',-0.215,0.155
'6:03.089',-0.230,0.140
'6:03.092',-0.230,0.140
'6:03.094',-0.230,0.150
'6:03.097',-0.225,0.155
'6:03.100',-0.210,0.160
'6:03.103',-0.210,0.150
'6:03.106',-0.225,0.130
'6:03.108',-0.225,0.130
'6:03.111',-0.225,0.120
'6:03.114',-0.220,0.135
'6:03.117',-0.205,0.140
'6:03.119',-0.210,0.130
'6:03.122',-0.220,0.135
'6:03.125',-0.225,0.110
'6:03.128',-0.230,0.135
'6:03.131',-0.220,0.150
'6:03.133',-0.205,0.155
'6:03.136',-0.205,0.145
'6:03.139',-0.215,0.120
'6:03.142',-0.220,0.120
'6:03.144',-0.210,0.130
'6:03.147',-0.200,0.150
'6:03.150',-0.190,0.150
'6:03.153',-0.205,0.140
'6:03.156',-0.210,0.125
'6:03.158',-0.230,0.120
'6:03.161',-0.225,0.130
'6:03.164',-0.210,0.130
'6:03.167',-0.215,0.130
'6:03.169',-0.215,0.120
'6:03.172',-0.255,0.095
'6:03.175',-0.260,0.080
'6:03.178',-0.265,0.075
'6:03.181',-0.260,0.070
'6:03.183',-0.255,0.075
'6:03.186',-0.255,0.045
'6:03.189',-0.280,0.035
'6:03.192',-0.290,0.020
'6:03.194',-0.280,0.040
'6:03.197',-0.260,0.040
'6:03.200',-0.240,0.040
'6:03.203',-0.235,0.035
'6:03.206',-0.250,0.015
'6:03.208',-0.250,0.015
'6:03.211',-0.245,0.045
'6:03.214',-0.235,0.060
'6:03.217',-0.225,0.075
'6:03.219',-0.225,0.060
'6:03.222',-0.240,0.070
'6:03.225',-0.245,0.060
'6:03.228',-0.245,0.070
'6:03.231',-0.245,0.095
'6:03.233',-0.230,0.100
'6:03.236',-0.235,0.100
'6:03.239',-0.245,0.095
'6:03.242',-0.250,0.090
'6:03.244',-0.240,0.110
'6:03.247',-0.225,0.120
'6:03.250',-0.210,0.130
'6:03.253',-0.225,0.115
'6:03.256',-0.225,0.115
'6:03.258',-0.245,0.095
'6:03.261',-0.255,0.115
'6:03.264',-0.245,0.120
'6:03.267',-0.230,0.120
'6:03.269',-0.210,0.100
'6:03.272',-0.230,0.080
'6:03.275',-0.245,0.095
'6:03.278',-0.225,0.100
'6:03.281',-0.215,0.120
'6:03.283',-0.205,0.130
'6:03.286',-0.210,0.115
'6:03.289',-0.210,0.110
'6:03.292',-0.210,0.105
'6:03.294',-0.215,0.115
'6:03.297',-0.200,0.120
'6:03.300',-0.190,0.120
'6:03.303',-0.195,0.115
'6:03.306',-0.205,0.100
'6:03.308',-0.205,0.095
'6:03.311',-0.215,0.115
'6:03.314',-0.210,0.115
'6:03.317',-0.195,0.110
'6:03.319',-0.205,0.110
'6:03.322',-0.220,0.095
'6:03.325',-0.255,0.090
'6:03.328',-0.250,0.090
'6:03.331',-0.250,0.080
'6:03.333',-0.250,0.060
'6:03.336',-0.250,0.035
'6:03.339',-0.255,0.010
'6:03.342',-0.265,0.030
'6:03.344',-0.250,0.010
'6:03.347',-0.245,0.035
'6:03.350',-0.245,0.040
'6:03.353',-0.240,0.030
'6:03.356',-0.230,0.015
'6:03.358',-0.200,0.010
'6:03.361',-0.120,0.010
'6:03.364',0.000,-0.005
'6:03.367',0.125,-0.020
'6:03.369',0.235,-0.065
'6:03.372',0.330,-0.100
'6:03.375',0.430,-0.125
'6:03.378',0.550,-0.105
'6:03.381',0.665,-0.110
'6:03.383',0.795,-0.135
'6:03.386',0.860,-0.185
'6:03.389',0.860,-0.210
'6:03.392',0.830,-0.230
'6:03.394',0.785,-0.205
'6:03.397',0.730,-0.175
'6:03.400',0.630,-0.135
'6:03.403',0.445,-0.075
'6:03.406',0.185,-0.045
'6:03.408',-0.030,0.000
'6:03.411',-0.155,0.020
'6:03.414',-0.175,0.060
'6:03.417',-0.195,0.080
'6:03.419',-0.240,0.090
'6:03.422',-0.290,0.090
'6:03.425',-0.310,0.090
'6:03.428',-0.300,0.110
'6:03.431',-0.300,0.125
'6:03.433',-0.305,0.125
'6:03.436',-0.315,0.135
'6:03.439',-0.325,0.115
'6:03.442',-0.335,0.120
'6:03.444',-0.330,0.130
'6:03.447',-0.335,0.140
'6:03.450',-0.320,0.140
'6:03.453',-0.330,0.140
'6:03.456',-0.345,0.115
'6:03.458',-0.365,0.125
'6:03.461',-0.370,0.140
'6:03.464',-0.370,0.130
'6:03.467',-0.370,0.130
'6:03.469',-0.365,0.095
'6:03.472',-0.385,0.080
'6:03.475',-0.390,0.065
'6:03.478',-0.395,0.065
'6:03.481',-0.395,0.070
'6:03.483',-0.380,0.060
'6:03.486',-0.385,0.045
'6:03.489',-0.395,0.035
'6:03.492',-0.400,0.035
'6:03.494',-0.425,0.045
'6:03.497',-0.400,0.050
'6:03.500',-0.375,0.065
'6:03.503',-0.385,0.050
'6:03.506',-0.395,0.060
'6:03.508',-0.410,0.065
'6:03.511',-0.410,0.080
'6:03.514',-0.390,0.100
'6:03.517',-0.385,0.110
'6:03.519',-0.380,0.095
'6:03.522',-0.395,0.095
'6:03.525',-0.415,0.095
'6:03.528',-0.410,0.115
'6:03.531',-0.405,0.130
'6:03.533',-0.400,0.140
'6:03.536',-0.395,0.125
'6:03.539',-0.415,0.135
'6:03.542',-0.410,0.130
'6:03.544',-0.435,0.140
'6:03.547',-0.390,0.155
'6:03.550',-0.380,0.160
'6:03.553',-0.375,0.160
'6:03.556',-0.390,0.155
'6:03.558',-0.390,0.145
'6:03.561',-0.390,0.155
'6:03.564',-0.390,0.160
'6:03.567',-0.360,0.165
'6:03.569',-0.355,0.160
'6:03.572',-0.365,0.140
'6:03.575',-0.385,0.130
'6:03.578',-0.380,0.145
'6:03.581',-0.365,0.160
'6:03.583',-0.335,0.150
'6:03.586',-0.345,0.160
'6:03.589',-0.345,0.140
'6:03.592',-0.355,0.140
'6:03.594',-0.350,0.145
'6:03.597',-0.330,0.150
'6:03.600',-0.315,0.150
'6:03.603',-0.305,0.150
'6:03.606',-0.330,0.140
'6:03.608',-0.330,0.140
'6:03.611',-0.335,0.130
'6:03.614',-0.320,0.125
'6:03.617',-0.305,0.120
'6:03.619',-0.310,0.100
'6:03.622',-0.305,0.070
'6:03.625',-0.325,0.040
'6:03.628',-0.330,0.050
'6:03.631',-0.305,0.035
'6:03.633',-0.285,0.035
'6:03.636',-0.300,0.020
'6:03.639',-0.290,0.005
'6:03.642',-0.285,0.015
'6:03.644',-0.275,0.025
'6:03.647',-0.260,0.035
'6:03.650',-0.250,0.045
'6:03.653',-0.245,0.040
'6:03.656',-0.240,0.040
'6:03.658',-0.240,0.045
'6:03.661',-0.230,0.060
'6:03.664',-0.220,0.080
'6:03.667',-0.215,0.080
'6:03.669',-0.215,0.090
'6:03.672',-0.230,0.075
'6:03.675',-0.220,0.075
'6:03.678',-0.260,0.085
'6:03.681',-0.240,0.105
'6:03.683',-0.225,0.125
'6:03.686',-0.225,0.120
'6:03.689',-0.245,0.120
'6:03.692',-0.255,0.120
'6:03.694',-0.250,0.130
'6:03.697',-0.245,0.155
'6:03.700',-0.225,0.160
'6:03.703',-0.230,0.155
'6:03.706',-0.225,0.150
'6:03.708',-0.230,0.145
'6:03.711',-0.235,0.155
'6:03.714',-0.220,0.165
'6:03.717',-0.220,0.165
'6:03.719',-0.225,0.160
'6:03.722',-0.210,0.160
'6:03.725',-0.230,0.150
'6:03.728',-0.235,0.155
'6:03.731',-0.225,0.155
'6:03.733',-0.215,0.170
'6:03.736',-0.210,0.175
'6:03.739',-0.220,0.165
'6:03.742',-0.220,0.160
'6:03.744',-0.240,0.170
'6:03.747',-0.210,0.185
'6:03.750',-0.210,0.185
'6:03.753',-0.210,0.200
'6:03.756',-0.210,0.175
'6:03.758',-0.215,0.180
'6:03.761',-0.210,0.185
'6:03.764',-0.205,0.195
'6:03.767',-0.190,0.185
'6:03.769',-0.190,0.160
'6:03.772',-0.200,0.120
'6:03.775',-0.210,0.090
'6:03.778',-0.215,0.090
'6:03.781',-0.205,0.085
'6:03.783',-0.190,0.070
'6:03.786',-0.195,0.070
'6:03.789',-0.210,0.055
'6:03.792',-0.220,0.060
'6:03.794',-0.225,0.065
'6:03.797',-0.210,0.080
'6:03.800',-0.215,0.075
'6:03.803',-0.220,0.090
'6:03.806',-0.215,0.070
'6:03.808',-0.220,0.065
'6:03.811',-0.220,0.085
'6:03.814',-0.215,0.075
'6:03.817',-0.205,0.085
'6:03.819',-0.195,0.090
'6:03.822',-0.205,0.065
'6:03.825',-0.220,0.080
'6:03.828',-0.225,0.100
'6:03.831',-0.215,0.105
'6:03.833',-0.215,0.100
'6:03.836',-0.215,0.110
'6:03.839',-0.215,0.105
'6:03.842',-0.245,0.095
'6:03.844',-0.235,0.120
'6:03.847',-0.230,0.130
'6:03.850',-0.225,0.140
'6:03.853',-0.215,0.145
'6:03.856',-0.225,0.145
'6:03.858',-0.230,0.145
'6:03.861',-0.225,0.150
'6:03.864',-0.225,0.170
'6:03.867',-0.205,0.170
'6:03.869',-0.195,0.165
'6:03.872',-0.215,0.160
'6:03.875',-0.225,0.155
'6:03.878',-0.240,0.165
'6:03.881',-0.220,0.170
'6:03.883',-0.205,0.170
'6:03.886',-0.210,0.160
'6:03.889',-0.215,0.160
'6:03.892',-0.225,0.150
'6:03.894',-0.230,0.150
'6:03.897',-0.220,0.175
'6:03.900',-0.205,0.185
'6:03.903',-0.205,0.155
'6:03.906',-0.220,0.160
'6:03.908',-0.220,0.160
'6:03.911',-0.225,0.175
'6:03.914',-0.195,0.170
'6:03.917',-0.195,0.175
'6:03.919',-0.190,0.170
'6:03.922',-0.190,0.155
'6:03.925',-0.215,0.160
'6:03.928',-0.215,0.170
'6:03.931',-0.195,0.175
'6:03.933',-0.185,0.190
'6:03.936',-0.185,0.185
'6:03.939',-0.200,0.170
'6:03.942',-0.210,0.175
'6:03.944',-0.215,0.185
'6:03.947',-0.205,0.195
'6:03.950',-0.200,0.195
'6:03.953',-0.210,0.185
'6:03.956',-0.205,0.155
'6:03.958',-0.220,0.130
'6:03.961',-0.220,0.110
'6:03.964',-0.215,0.095
'6:03.967',-0.190,0.080
'6:03.969',-0.190,0.070
'6:03.972',-0.190,0.055
'6:03.975',-0.205,0.060
'6:03.978',-0.210,0.055
'6:03.981',-0.200,0.070
'6:03.983',-0.200,0.080
'6:03.986',-0.200,0.070
'6:03.989',-0.205,0.065
'6:03.992',-0.220,0.075
'6:03.994',-0.215,0.085
'6:03.997',-0.210,0.090
'6:04.000',-0.210,0.090
'6:04.003',-0.205,0.090
'6:04.006',-0.225,0.100
'6:04.008',-0.235,0.090
'6:04.011',-0.240,0.115
'6:04.014',-0.225,0.115
'6:04.017',-0.220,0.130
'6:04.019',-0.215,0.120
'6:04.022',-0.220,0.115
'6:04.025',-0.230,0.115
'6:04.028',-0.240,0.125
'6:04.031',-0.215,0.140
'6:04.033',-0.205,0.145
'6:04.036',-0.210,0.140
'6:04.039',-0.205,0.125
'6:04.042',-0.215,0.110
'6:04.044',-0.220,0.115
'6:04.047',-0.220,0.135
'6:04.050',-0.205,0.135
'6:04.053',-0.205,0.130
'6:04.056',-0.215,0.125
'6:04.058',-0.230,0.115
'6:04.061',-0.230,0.125
'6:04.064',-0.215,0.135
'6:04.067',-0.200,0.135
'6:04.069',-0.195,0.135
'6:04.072',-0.200,0.110
'6:04.075',-0.200,0.120
'6:04.078',-0.210,0.125
'6:04.081',-0.200,0.155
'6:04.083',-0.185,0.145
'6:04.086',-0.185,0.140
'6:04.089',-0.195,0.120
'6:04.092',-0.200,0.120
'6:04.094',-0.205,0.140
'6:04.097',-0.195,0.135
'6:04.100',-0.195,0.140
'6:04.103',-0.210,0.130
'6:04.106',-0.215,0.115
'6:04.108',-0.230,0.110
'6:04.111',-0.245,0.120
'6:04.114',-0.250,0.140
'6:04.117',-0.250,0.120
'6:04.119',-0.255,0.120
'6:04.122',-0.255,0.095
'6:04.125',-0.290,0.070
'6:04.128',-0.280,0.070
'6:04.131',-0.260,0.065
'6:04.133',-0.235,0.060
'6:04.136',-0.225,0.055
'6:04.139',-0.225,0.060
'6:04.142',-0.225,0.060
'6:04.144',-0.230,0.075
'6:04.147',-0.220,0.100
'6:04.150',-0.205,0.095
'6:04.153',-0.210,0.100
'6:04.156',-0.210,0.105
'6:04.158',-0.225,0.105
'6:04.161',-0.225,0.120
'6:04.164',-0.225,0.135
'6:04.167',-0.215,0.140
'6:04.169',-0.215,0.145
'6:04.172',-0.215,0.120
'6:04.175',-0.215,0.135
'6:04.178',-0.225,0.145
'6:04.181',-0.210,0.155
'6:04.183',-0.200,0.150
'6:04.186',-0.220,0.150
'6:04.189',-0.215,0.135
'6:04.192',-0.215,0.140
'6:04.194',-0.210,0.140
'6:04.197',-0.205,0.140
'6:04.200',-0.190,0.140
'6:04.203',-0.200,0.145
'6:04.206',-0.210,0.145
'6:04.208',-0.205,0.140
'6:04.211',-0.210,0.145
'6:04.214',-0.190,0.150
'6:04.217',-0.180,0.175
'6:04.219',-0.160,0.160
'6:04.222',-0.190,0.150
'6:04.225',-0.200,0.150
'6:04.228',-0.185,0.150
'6:04.231',-0.170,0.165
'6:04.233',-0.160,0.180
'6:04.236',-0.160,0.170
'6:04.239',-0.175,0.160
'6:04.242',-0.180,0.135
'6:04.244',-0.185,0.150
'6:04.247',-0.180,0.155
'6:04.250',-0.180,0.155
'6:04.253',-0.195,0.150
'6:04.256',-0.215,0.140
'6:04.258',-0.235,0.135
'6:04.261',-0.250,0.135
'6:04.264',-0.245,0.105
'6:04.267',-0.200,0.070
'6:04.269',-0.125,0.030
'6:04.272',-0.020,-0.010
'6:04.275',0.100,-0.055
'6:04.278',0.215,-0.070
'6:04.281',0.335,-0.085
'6:04.283',0.445,-0.095
'6:04.286',0.590,-0.090
'6:04.289',0.710,-0.125
'6:04.292',0.805,-0.170
'6:04.294',0.855,-0.220
'6:04.297',0.855,-0.230
'6:04.300',0.840,-0.215
'6:04.303',0.765,-0.200
'6:04.306',0.665,-0.155
'6:04.308',0.515,-0.095
'6:04.311',0.280,-0.030
'6:04.314',0.060,0.005
'6:04.317',-0.095,0.045
'6:04.319',-0.155,0.070
'6:04.322',-0.180,0.095
'6:04.325',-0.215,0.095
'6:04.328',-0.265,0.130
'6:04.331',-0.275,0.160
'6:04.333',-0.280,0.140
'6:04.336',-0.285,0.150
'6:04.339',-0.305,0.145
'6:04.342',-0.345,0.140
'6:04.344',-0.340,0.155
'6:04.347',-0.330,0.170
'6:04.350',-0.320,0.165
'6:04.353',-0.335,0.165
'6:04.356',-0.345,0.150
'6:04.358',-0.355,0.160
'6:04.361',-0.350,0.170
'6:04.364',-0.335,0.175
'6:04.367',-0.325,0.180
'6:04.369',-0.335,0.165
'6:04.372',-0.350,0.170
'6:04.375',-0.350,0.150
'6:04.378',-0.355,0.155
'6:04.381',-0.345,0.180
'6:04.383',-0.330,0.185
'6:04.386',-0.345,0.180
'6:04.389',-0.370,0.160
'6:04.392',-0.370,0.160
'6:04.394',-0.395,0.150
'6:04.397',-0.400,0.180
'6:04.400',-0.395,0.175
'6:04.403',-0.400,0.170
'6:04.406',-0.430,0.150
'6:04.408',-0.435,0.125
'6:04.411',-0.445,0.105
'6:04.414',-0.430,0.095
'6:04.417',-0.405,0.095
'6:04.419',-0.405,0.075
'6:04.422',-0.420,0.060
'6:04.425',-0.425,0.075
'6:04.428',-0.425,0.090
'6:04.431',-0.405,0.115
'6:04.433',-0.395,0.125
'6:04.436',-0.405,0.130
'6:04.439',-0.405,0.115
'6:04.442',-0.405,0.095
'6:04.444',-0.405,0.125
'6:04.447',-0.395,0.140
'6:04.450',-0.385,0.145
'6:04.453',-0.385,0.145
'6:04.456',-0.400,0.145
'6:04.458',-0.400,0.145
'6:04.461',-0.395,0.165
'6:04.464',-0.380,0.165
'6:04.467',-0.370,0.170
'6:04.469',-0.370,0.160
'6:04.472',-0.370,0.150
'6:04.475',-0.385,0.145
'6:04.478',-0.370,0.155
'6:04.481',-0.360,0.160
'6:04.483',-0.350,0.175
'6:04.486',-0.340,0.155
'6:04.489',-0.350,0.140
'6:04.492',-0.360,0.150
'6:04.494',-0.355,0.160
'6:04.497',-0.335,0.170
'6:04.500',-0.320,0.165
'6:04.503',-0.320,0.165
'6:04.506',-0.340,0.170
'6:04.508',-0.325,0.160
'6:04.511',-0.315,0.165
'6:04.514',-0.305,0.175
'6:04.517',-0.290,0.175
'6:04.519',-0.285,0.185
'6:04.522',-0.290,0.170
'6:04.525',-0.285,0.160
'6:04.528',-0.280,0.175
'6:04.531',-0.255,0.170
'6:04.533',-0.240,0.180
'6:04.536',-0.240,0.180
'6:04.539',-0.260,0.165
'6:04.542',-0.265,0.155
'6:04.544',-0.275,0.155
'6:04.547',-0.270,0.165
'6:04.550',-0.260,0.170
'6:04.553',-0.245,0.165
'6:04.556',-0.255,0.155
'6:04.558',-0.260,0.140
'6:04.561',-0.270,0.105
'6:04.564',-0.250,0.105
'6:04.567',-0.240,0.095
'6:04.569',-0.235,0.090
'6:04.572',-0.245,0.085
'6:04.575',-0.230,0.080
'6:04.578',-0.240,0.105
'6:04.581',-0.235,0.105
'6:04.583',-0.215,0.125
'6:04.586',-0.225,0.120
'6:04.589',-0.230,0.115
'6:04.592',-0.235,0.115
'6:04.594',-0.235,0.125
'6:04.597',-0.230,0.145
'6:04.600',-0.220,0.165
'6:04.603',-0.230,0.155
'6:04.606',-0.230,0.160
'6:04.608',-0.235,0.155
'6:04.611',-0.240,0.165
'6:04.614',-0.235,0.170
'6:04.617',-0.225,0.175
'6:04.619',-0.235,0.165
'6:04.622',-0.235,0.170
'6:04.625',-0.245,0.155
'6:04.628',-0.240,0.165
'6:04.631',-0.235,0.175
'6:04.633',-0.240,0.185
'6:04.636',-0.230,0.175
'6:04.639',-0.250,0.170
'6:04.642',-0.250,0.165
'6:04.644',-0.240,0.170
'6:04.647',-0.230,0.185
'6:04.650',-0.215,0.180
'6:04.653',-0.225,0.185
'6:04.656',-0.235,0.175
'6:04.658',-0.230,0.175
'6:04.661',-0.240,0.170
'6:04.664',-0.220,0.185
'6:04.667',-0.210,0.185
'6:04.669',-0.220,0.190
'6:04.672',-0.220,0.170
'6:04.675',-0.230,0.170
'6:04.678',-0.240,0.160
'6:04.681',-0.225,0.180
'6:04.683',-0.245,0.180
'6:04.686',-0.230,0.195
'6:04.689',-0.250,0.170
'6:04.692',-0.260,0.185
'6:04.694',-0.265,0.205
'6:04.697',-0.270,0.210
'6:04.700',-0.240,0.220
'6:04.703',-0.240,0.215
'6:04.706',-0.250,0.210
'6:04.708',-0.285,0.220
'6:04.711',-0.285,0.225
'6:04.714',-0.270,0.215
'6:04.717',-0.265,0.200
'6:04.719',-0.255,0.165
'6:04.722',-0.270,0.140
'6:04.725',-0.265,0.120
'6:04.728',-0.260,0.120
'6:04.731',-0.250,0.120
'6:04.733',-0.230,0.135
'6:04.736',-0.230,0.135
'6:04.739',-0.250,0.140
'6:04.742',-0.260,0.135
'6:04.744',-0.275,0.155
'6:04.747',-0.255,0.160
'6:04.750',-0.220,0.155
'6:04.753',-0.215,0.155
'6:04.756',-0.220,0.145
'6:04.758',-0.230,0.140
'6:04.761',-0.245,0.160
'6:04.764',-0.235,0.155
'6:04.767',-0.220,0.155
'6:04.769',-0.215,0.140
'6:04.772',-0.220,0.125
'6:04.775',-0.245,0.125
'6:04.778',-0.240,0.130
'6:04.781',-0.230,0.160
'6:04.783',-0.220,0.150
'6:04.786',-0.215,0.150
'6:04.789',-0.215,0.135
'6:04.792',-0.225,0.150
'6:04.794',-0.230,0.155
'6:04.797',-0.210,0.160
'6:04.800',-0.215,0.160
'6:04.803',-0.215,0.155
'6:04.806',-0.215,0.140
'6:04.808',-0.220,0.140
'6:04.811',-0.225,0.145
'6:04.814',-0.215,0.160
'6:04.817',-0.205,0.160
'6:04.819',-0.215,0.150
'6:04.822',-0.220,0.140
'6:04.825',-0.235,0.135
'6:04.828',-0.245,0.145
'6:04.831',-0.260,0.155
'6:04.833',-0.235,0.145
'6:04.836',-0.240,0.140
'6:04.839',-0.260,0.140
'6:04.842',-0.265,0.120
'6:04.844',-0.265,0.145
'6:04.847',-0.265,0.145
'6:04.850',-0.260,0.150
'6:04.853',-0.260,0.125
'6:04.856',-0.275,0.115
'6:04.858',-0.275,0.110
'6:04.861',-0.275,0.110
'6:04.864',-0.265,0.110
'6:04.867',-0.250,0.115
'6:04.869',-0.255,0.105
'6:04.872',-0.260,0.095
'6:04.875',-0.265,0.105
'6:04.878',-0.270,0.125
'6:04.881',-0.260,0.130
'6:04.883',-0.250,0.150
'6:04.886',-0.245,0.155
'6:04.889',-0.250,0.160
'6:04.892',-0.240,0.165
'6:04.894',-0.235,0.175
'6:04.897',-0.235,0.180
'6:04.900',-0.225,0.195
'6:04.903',-0.230,0.180
'6:04.906',-0.245,0.170
'6:04.908',-0.235,0.170
'6:04.911',-0.240,0.175
'6:04.914',-0.235,0.175
'6:04.917',-0.225,0.175
'6:04.919',-0.225,0.165
'6:04.922',-0.235,0.155
'6:04.925',-0.225,0.160
'6:04.928',-0.230,0.170
'6:04.931',-0.225,0.170
'6:04.933',-0.215,0.180
'6:04.936',-0.230,0.175
'6:04.939',-0.240,0.170
'6:04.942',-0.220,0.160
'6:04.944',-0.220,0.175
'6:04.947',-0.200,0.185
'6:04.950',-0.190,0.195
'6:04.953',-0.185,0.185
'6:04.956',-0.205,0.175
'6:04.958',-0.220,0.175
'6:04.961',-0.205,0.185
'6:04.964',-0.205,0.185
'6:04.967',-0.200,0.190
'6:04.969',-0.215,0.190
'6:04.972',-0.225,0.170
'6:04.975',-0.235,0.155
'6:04.978',-0.250,0.160
'6:04.981',-0.245,0.165
'6:04.983',-0.235,0.160
'6:04.986',-0.245,0.155
'6:04.989',-0.260,0.140
'6:04.992',-0.265,0.125
'6:04.994',-0.265,0.120
'6:04.997',-0.245,0.115
'6:05.000',-0.250,0.115
'6:05.003',-0.260,0.095
'6:05.006',-0.260,0.075
'6:05.008',-0.265,0.060
'6:05.011',-0.250,0.055
'6:05.014',-0.250,0.060
'6:05.017',-0.235,0.065
'6:05.019',-0.260,0.055
'6:05.022',-0.270,0.060
'6:05.025',-0.270,0.055
'6:05.028',-0.275,0.080
'6:05.031',-0.275,0.105
'6:05.033',-0.240,0.145
'6:05.036',-0.240,0.155
'6:05.039',-0.235,0.155
'6:05.042',-0.235,0.165
'6:05.044',-0.225,0.160
'6:05.047',-0.220,0.170
'6:05.050',-0.215,0.175
'6:05.053',-0.225,0.185
'6:05.056',-0.225,0.180
'6:05.058',-0.240,0.160
'6:05.061',-0.245,0.165
'6:05.064',-0.235,0.185
'6:05.067',-0.220,0.195
'6:05.069',-0.235,0.175
'6:05.072',-0.230,0.165
'6:05.075',-0.235,0.175
'6:05.078',-0.240,0.190
'6:05.081',-0.220,0.200
'6:05.083',-0.205,0.205
'6:05.086',-0.205,0.195
'6:05.089',-0.225,0.185
'6:05.092',-0.225,0.160
'6:05.094',-0.220,0.190
'6:05.097',-0.210,0.195
'6:05.100',-0.195,0.200
'6:05.103',-0.195,0.195
'6:05.106',-0.220,0.180
'6:05.108',-0.220,0.185
'6:05.111',-0.220,0.175
'6:05.114',-0.220,0.195
'6:05.117',-0.210,0.200
'6:05.119',-0.220,0.170
'6:05.122',-0.240,0.160
'6:05.125',-0.250,0.155
'6:05.128',-0.250,0.160
'6:05.131',-0.255,0.150
'6:05.133',-0.235,0.150
'6:05.136',-0.240,0.120
'6:05.139',-0.265,0.100
'6:05.142',-0.265,0.085
'6:05.144',-0.275,0.080
'6:05.147',-0.270,0.085
'6:05.150',-0.250,0.090
'6:05.153',-0.270,0.080
'6:05.156',-0.270,0.070
'6:05.158',-0.265,0.070
'6:05.161',-0.290,0.085
'6:05.164',-0.260,0.095
'6:05.167',-0.245,0.125
'6:05.169',-0.245,0.145
'6:05.172',-0.270,0.135
'6:05.175',-0.255,0.145
'6:05.178',-0.250,0.160
'6:05.181',-0.240,0.175
'6:05.183',-0.235,0.180
'6:05.186',-0.220,0.180
'6:05.189',-0.210,0.185
'6:05.192',-0.220,0.175
'6:05.194',-0.220,0.180
'6:05.197',-0.225,0.190
'6:05.200',-0.225,0.195
'6:05.203',-0.230,0.185
'6:05.206',-0.230,0.180
'6:05.208',-0.225,0.160
'6:05.211',-0.225,0.175
'6:05.214',-0.205,0.200
'6:05.217',-0.195,0.205
'6:05.219',-0.200,0.210
'6:05.222',-0.190,0.190
'6:05.225',-0.190,0.185
'6:05.228',-0.195,0.190
'6:05.231',-0.180,0.195
'6:05.233',-0.165,0.195
'6:05.236',-0.175,0.190
'6:05.239',-0.180,0.170
'6:05.242',-0.185,0.155
'6:05.244',-0.175,0.150
'6:05.247',-0.160,0.155
'6:05.250',-0.185,0.160
'6:05.253',-0.175,0.140
'6:05.256',-0.160,0.105
'6:05.258',-0.105,0.055
'6:05.261',-0.005,0.040
'6:05.264',0.105,0.030
'6:05.267',0.220,0.015
'6:05.269',0.310,-0.030
'6:05.272',0.400,-0.075
'6:05.275',0.510,-0.095
'6:05.278',0.610,-0.115
'6:05.281',0.710,-0.135
'6:05.283',0.775,-0.195
'6:05.286',0.765,-0.230
'6:05.289',0.725,-0.250
'6:05.292',0.665,-0.230
'6:05.294',0.570,-0.185
'6:05.297',0.420,-0.100
'6:05.300',0.200,-0.025
'6:05.303',-0.025,0.030
'6:05.306',-0.160,0.060
'6:05.308',-0.205,0.090
'6:05.311',-0.220,0.140
'6:05.314',-0.245,0.185
'6:05.317',-0.265,0.205
'6:05.319',-0.280,0.220
'6:05.322',-0.290,0.205
'6:05.325',-0.305,0.220
'6:05.328',-0.320,0.230
'6:05.331',-0.325,0.230
'6:05.333',-0.315,0.255
'6:05.336',-0.330,0.245
'6:05.339',-0.330,0.225
'6:05.342',-0.345,0.230
'6:05.344',-0.350,0.235
'6:05.347',-0.350,0.240
'6:05.350',-0.340,0.245
'6:05.353',-0.345,0.240
'6:05.356',-0.350,0.235
'6:05.358',-0.360,0.230
'6:05.361',-0.360,0.235
'6:05.364',-0.345,0.255
'6:05.367',-0.350,0.265
'6:05.369',-0.350,0.255
'6:05.372',-0.350,0.230
'6:05.375',-0.360,0.230
'6:05.378',-0.365,0.225
'6:05.381',-0.350,0.255
'6:05.383',-0.350,0.255
'6:05.386',-0.360,0.240
'6:05.389',-0.370,0.225
'6:05.392',-0.385,0.220
'6:05.394',-0.395,0.225
'6:05.397',-0.400,0.225
'6:05.400',-0.385,0.240
'6:05.403',-0.395,0.230
'6:05.406',-0.415,0.220
'6:05.408',-0.410,0.210
'6:05.411',-0.400,0.210
'6:05.414',-0.400,0.220
'6:05.417',-0.410,0.200
'6:05.419',-0.410,0.175
'6:05.422',-0.415,0.160
'6:05.425',-0.415,0.140
'6:05.428',-0.420,0.135
'6:05.431',-0.400,0.110
'6:05.433',-0.390,0.115
'6:05.436',-0.410,0.110
'6:05.439',-0.415,0.105
'6:05.442',-0.415,0.105
'6:05.444',-0.420,0.125
'6:05.447',-0.405,0.145
'6:05.450',-0.390,0.155
'6:05.453',-0.380,0.165
'6:05.456',-0.385,0.155
'6:05.458',-0.375,0.165
'6:05.461',-0.380,0.180
'6:05.464',-0.365,0.190
'6:05.467',-0.350,0.185
'6:05.469',-0.340,0.195
'6:05.472',-0.335,0.190
'6:05.475',-0.350,0.175
'6:05.478',-0.340,0.160
'6:05.481',-0.330,0.160
'6:05.483',-0.325,0.175
'6:05.486',-0.315,0.175
'6:05.489',-0.325,0.165
'6:05.492',-0.325,0.165
'6:05.494',-0.320,0.165
'6:05.497',-0.315,0.175
'6:05.500',-0.290,0.190
'6:05.503',-0.290,0.175
'6:05.506',-0.295,0.175
'6:05.508',-0.290,0.165
'6:05.511',-0.280,0.170
'6:05.514',-0.270,0.170
'6:05.517',-0.250,0.185
'6:05.519',-0.245,0.180
'6:05.522',-0.240,0.165
'6:05.525',-0.230,0.155
'6:05.528',-0.235,0.160
'6:05.531',-0.235,0.180
'6:05.533',-0.215,0.175
'6:05.536',-0.230,0.165
'6:05.539',-0.230,0.155
'6:05.542',-0.235,0.160
'6:05.544',-0.235,0.160
'6:05.547',-0.225,0.170
'6:05.550',-0.220,0.175
'6:05.553',-0.210,0.170
'6:05.556',-0.215,0.155
'6:05.558',-0.230,0.150
'6:05.561',-0.245,0.145
'6:05.564',-0.240,0.160
'6:05.567',-0.225,0.155
'6:05.569',-0.225,0.155
'6:05.572',-0.235,0.140
'6:05.575',-0.260,0.135
'6:05.578',-0.265,0.140
'6:05.581',-0.250,0.145
'6:05.583',-0.240,0.145
'6:05.586',-0.240,0.150
'6:05.589',-0.245,0.140
'6:05.592',-0.255,0.140
'6:05.594',-0.255,0.145
'6:05.597',-0.235,0.175
'6:05.600',-0.215,0.180
'6:05.603',-0.210,0.200
'6:05.606',-0.215,0.195
'6:05.608',-0.230,0.190
'6:05.611',-0.225,0.210
'6:05.614',-0.215,0.200
'6:05.617',-0.215,0.205
'6:05.619',-0.200,0.205
'6:05.622',-0.215,0.195
'6:05.625',-0.225,0.190
'6:05.628',-0.235,0.195
'6:05.631',-0.205,0.220
'6:05.633',-0.190,0.210
'6:05.636',-0.185,0.225
'6:05.639',-0.195,0.225
'6:05.642',-0.200,0.210
'6:05.644',-0.205,0.230
'6:05.647',-0.185,0.225
'6:05.650',-0.175,0.235
'6:05.653',-0.180,0.225
'6:05.656',-0.185,0.220
'6:05.658',-0.195,0.215
'6:05.661',-0.185,0.225
'6:05.664',-0.185,0.225
'6:05.667',-0.180,0.230
'6:05.669',-0.195,0.225
'6:05.672',-0.195,0.215
'6:05.675',-0.205,0.190
'6:05.678',-0.220,0.205
'6:05.681',-0.205,0.210
'6:05.683',-0.200,0.200
'6:05.686',-0.205,0.190
'6:05.689',-0.220,0.175
'6:05.692',-0.230,0.150
'6:05.694',-0.225,0.140
'6:05.697',-0.230,0.140
'6:05.700',-0.220,0.155
'6:05.703',-0.220,0.120
'6:05.706',-0.230,0.115
'6:05.708',-0.245,0.100
'6:05.711',-0.235,0.110
'6:05.714',-0.240,0.110
'6:05.717',-0.235,0.120
'6:05.719',-0.230,0.110
'6:05.722',-0.245,0.100
'6:05.725',-0.255,0.105
'6:05.728',-0.260,0.120
'6:05.731',-0.245,0.120
'6:05.733',-0.235,0.145
'6:05.736',-0.220,0.140
'6:05.739',-0.230,0.145
'6:05.742',-0.240,0.140
'6:05.744',-0.235,0.140
'6:05.747',-0.220,0.160
'6:05.750',-0.210,0.175
'6:05.753',-0.200,0.180
'6:05.756',-0.205,0.175
'6:05.758',-0.205,0.160
'6:05.761',-0.210,0.170
'6:05.764',-0.210,0.185
'6:05.767',-0.205,0.190
'6:05.769',-0.190,0.190
'6:05.772',-0.205,0.190
'6:05.775',-0.210,0.180
'6:05.778',-0.205,0.195
'6:05.781',-0.190,0.205
'6:05.783',-0.160,0.210
'6:05.786',-0.170,0.205
'6:05.789',-0.190,0.190
'6:05.792',-0.190,0.190
'6:05.794',-0.190,0.195
'6:05.797',-0.185,0.205
'6:05.800',-0.175,0.215
'6:05.803',-0.185,0.200
'6:05.806',-0.190,0.190
'6:05.808',-0.195,0.185
'6:05.811',-0.215,0.180
'6:05.814',-0.205,0.195
'6:05.817',-0.185,0.195
'6:05.819',-0.200,0.185
'6:05.822',-0.220,0.170
'6:05.825',-0.225,0.140
'6:05.828',-0.230,0.145
'6:05.831',-0.230,0.140
'6:05.833',-0.220,0.145
'6:05.836',-0.225,0.120
'6:05.839',-0.235,0.115
'6:05.842',-0.240,0.100
'6:05.844',-0.250,0.090
'6:05.847',-0.235,0.095
'6:05.850',-0.230,0.100
'6:05.853',-0.225,0.105
'6:05.856',-0.250,0.085
'6:05.858',-0.255,0.085
'6:05.861',-0.255,0.095
'6:05.864',-0.250,0.105
'6:05.867',-0.235,0.110
'6:05.869',-0.230,0.120
'6:05.872',-0.245,0.100
'6:05.875',-0.245,0.115
'6:05.878',-0.245,0.135
'6:05.881',-0.240,0.155
'6:05.883',-0.205,0.165
'6:05.886',-0.200,0.160
'6:05.889',-0.205,0.160
'6:05.892',-0.215,0.145
'6:05.894',-0.210,0.155
'6:05.897',-0.200,0.160
'6:05.900',-0.185,0.175
'6:05.903',-0.190,0.165
'6:05.906',-0.195,0.155
'6:05.908',-0.215,0.140
'6:05.911',-0.210,0.150
'6:05.914',-0.200,0.175
'6:05.917',-0.185,0.185
'6:05.919',-0.180,0.175
'6:05.922',-0.175,0.175
'6:05.925',-0.185,0.165
'6:05.928',-0.185,0.180
'6:05.931',-0.155,0.185
'6:05.933',-0.145,0.195
'6:05.936',-0.140,0.190
'6:05.939',-0.160,0.175
'6:05.942',-0.155,0.195
'6:05.944',-0.175,0.195
'6:05.947',-0.160,0.210
'6:05.950',-0.150,0.205
'6:05.953',-0.125,0.180
'6:05.956',-0.055,0.145
'6:05.958',0.015,0.135
'6:05.961',0.140,0.095
'6:05.964',0.265,0.075
'6:05.967',0.390,0.025
'6:05.969',0.495,-0.035
'6:05.972',0.600,-0.075
'6:05.975',0.720,-0.110
'6:05.978',0.825,-0.150
'6:05.981',0.915,-0.215
'6:05.983',0.930,-0.250
'6:05.986',0.880,-0.260
'6:05.989',0.815,-0.280
'6:05.992',0.720,-0.270
'6:05.994',0.600,-0.205
'6:05.997',0.425,-0.145
'6:06.000',0.195,-0.105
'6:06.003',-0.015,-0.050
'6:06.006',-0.120,-0.035
'6:06.008',-0.180,-0.005
'6:06.011',-0.225,0.025
'6:06.014',-0.260,0.065
'6:06.017',-0.265,0.100
'6:06.019',-0.285,0.110
'6:06.022',-0.300,0.120
'6:06.025',-0.300,0.130
'6:06.028',-0.320,0.150
'6:06.031',-0.315,0.170
'6:06.033',-0.305,0.175
'6:06.036',-0.310,0.180
'6:06.039',-0.320,0.170
'6:06.042',-0.335,0.170
'6:06.044',-0.345,0.175
'6:06.047',-0.335,0.185
'6:06.050',-0.315,0.195
'6:06.053',-0.325,0.190
'6:06.056',-0.340,0.185
'6:06.058',-0.350,0.165
'6:06.061',-0.350,0.180
'6:06.064',-0.330,0.190
'6:06.067',-0.340,0.205
'6:06.069',-0.330,0.195
'6:06.072',-0.325,0.180
'6:06.075',-0.340,0.185
'6:06.078',-0.330,0.195
'6:06.081',-0.325,0.200
'6:06.083',-0.305,0.210
'6:06.086',-0.305,0.195
'6:06.089',-0.325,0.195
'6:06.092',-0.335,0.195
'6:06.094',-0.340,0.205
'6:06.097',-0.325,0.210
'6:06.100',-0.325,0.210
'6:06.103',-0.325,0.210
'6:06.106',-0.345,0.205
'6:06.108',-0.345,0.200
'6:06.111',-0.345,0.200
'6:06.114',-0.340,0.200
'6:06.117',-0.340,0.200
'6:06.119',-0.345,0.185
'6:06.122',-0.360,0.155
'6:06.125',-0.370,0.150
'6:06.128',-0.385,0.130
'6:06.131',-0.365,0.130
'6:06.133',-0.350,0.130
'6:06.136',-0.350,0.115
'6:06.139',-0.365,0.105
'6:06.142',-0.370,0.090
'6:06.144',-0.375,0.085
'6:06.147',-0.365,0.100
'6:06.150',-0.350,0.115
'6:06.153',-0.360,0.100
'6:06.156',-0.365,0.085
'6:06.158',-0.365,0.080
'6:06.161',-0.375,0.095
'6:06.164',-0.355,0.105
'6:06.167',-0.355,0.120
'6:06.169',-0.350,0.125
'6:06.172',-0.350,0.120
'6:06.175',-0.355,0.125
'6:06.178',-0.355,0.145
'6:06.181',-0.350,0.155
'6:06.183',-0.330,0.175
'6:06.186',-0.315,0.160
'6:06.189',-0.320,0.155
'6:06.192',-0.320,0.150
'6:06.194',-0.320,0.160
'6:06.197',-0.310,0.175
'6:06.200',-0.290,0.175
'6:06.203',-0.280,0.175
'6:06.206',-0.295,0.160
'6:06.208',-0.295,0.150
'6:06.211',-0.290,0.145
'6:06.214',-0.270,0.155
'6:06.217',-0.265,0.170
'6:06.219',-0.255,0.165
'6:06.222',-0.245,0.160
'6:06.225',-0.250,0.160
'6:06.228',-0.230,0.165
'6:06.231',-0.215,0.185
'6:06.233',-0.210,0.195
'6:06.236',-0.195,0.190
'6:06.239',-0.200,0.185
'6:06.242',-0.200,0.185
'6:06.244',-0.205,0.185
'6:06.247',-0.175,0.190
'6:06.250',-0.160,0.205
'6:06.253',-0.170,0.190
'6:06.256',-0.190,0.170
'6:06.258',-0.190,0.165
'6:06.261',-0.185,0.165
'6:06.264',-0.185,0.155
'6:06.267',-0.175,0.160
'6:06.269',-0.185,0.145
'6:06.272',-0.200,0.110
'6:06.275',-0.220,0.105
'6:06.278',-0.225,0.095
'6:06.281',-0.215,0.100
'6:06.283',-0.205,0.105
'6:06.286',-0.205,0.095
'6:06.289',-0.215,0.085
'6:06.292',-0.225,0.075
'6:06.294',-0.245,0.080
'6:06.297',-0.225,0.105
'6:06.300',-0.215,0.115
'6:06.303',-0.215,0.110
'6:06.306',-0.215,0.105
'6:06.308',-0.235,0.090
'6:06.311',-0.235,0.100
'6:06.314',-0.240,0.120
'6:06.317',-0.230,0.135
'6:06.319',-0.215,0.140
'6:06.322',-0.225,0.130
'6:06.325',-0.235,0.120
'6:06.328',-0.245,0.130
'6:06.331',-0.225,0.145
'6:06.333',-0.215,0.170
'6:06.336',-0.210,0.165
'6:06.339',-0.220,0.170
'6:06.342',-0.220,0.160
'6:06.344',-0.225,0.180
'6:06.347',-0.205,0.185
'6:06.350',-0.200,0.185
'6:06.353',-0.205,0.190
'6:06.356',-0.205,0.180
'6:06.358',-0.205,0.170
'6:06.361',-0.230,0.165
'6:06.364',-0.200,0.175
'6:06.367',-0.195,0.180
'6:06.369',-0.185,0.180
'6:06.372',-0.195,0.180
'6:06.375',-0.200,0.170
'6:06.378',-0.190,0.190
'6:06.381',-0.175,0.210
'6:06.383',-0.170,0.215
'6:06.386',-0.165,0.220
'6:06.389',-0.175,0.205
'6:06.392',-0.185,0.195
'6:06.394',-0.190,0.185
'6:06.397',-0.180,0.180
'6:06.400',-0.160,0.160
'6:06.403',-0.175,0.140
'6:06.406',-0.185,0.110
'6:06.408',-0.200,0.090
'6:06.411',-0.205,0.085
'6:06.414',-0.205,0.085
'6:06.417',-0.195,0.095
'6:06.419',-0.200,0.095
'6:06.422',-0.210,0.075
'6:06.425',-0.210,0.065
'6:06.428',-0.205,0.070
'6:06.431',-0.210,0.085
'6:06.433',-0.210,0.085
'6:06.436',-0.200,0.100
'6:06.439',-0.210,0.075
'6:06.442',-0.220,0.085
'6:06.444',-0.215,0.085
'6:06.447',-0.225,0.090
'6:06.450',-0.200,0.105
'6:06.453',-0.205,0.095
'6:06.456',-0.220,0.105
'6:06.458',-0.235,0.110
'6:06.461',-0.235,0.120
'6:06.464',-0.220,0.140
'6:06.467',-0.210,0.155
'6:06.469',-0.210,0.150
'6:06.472',-0.225,0.140
'6:06.475',-0.225,0.155
'6:06.478',-0.225,0.155
'6:06.481',-0.215,0.180
'6:06.483',-0.210,0.195
'6:06.486',-0.215,0.190
'6:06.489',-0.215,0.175
'6:06.492',-0.220,0.165
'6:06.494',-0.215,0.170
'6:06.497',-0.215,0.190
'6:06.500',-0.205,0.190
'6:06.503',-0.200,0.185
'6:06.506',-0.205,0.165
'6:06.508',-0.230,0.165
'6:06.511',-0.230,0.170
'6:06.514',-0.205,0.200
'6:06.517',-0.195,0.205
'6:06.519',-0.195,0.190
'6:06.522',-0.205,0.190
'6:06.525',-0.215,0.190
'6:06.528',-0.205,0.185
'6:06.531',-0.190,0.170
'6:06.533',-0.190,0.175
'6:06.536',-0.185,0.155
'6:06.539',-0.185,0.145
'6:06.542',-0.185,0.115
'6:06.544',-0.195,0.110
'6:06.547',-0.180,0.105
'6:06.550',-0.185,0.095
'6:06.553',-0.180,0.095
'6:06.556',-0.195,0.075
'6:06.558',-0.200,0.060
'6:06.561',-0.200,0.070
'6:06.564',-0.220,0.075
'6:06.567',-0.195,0.095
'6:06.569',-0.190,0.085
'6:06.572',-0.205,0.075
'6:06.575',-0.220,0.075
'6:06.578',-0.225,0.090
'6:06.581',-0.215,0.090
'6:06.583',-0.200,0.110
'6:06.586',-0.210,0.100
'6:06.589',-0.205,0.100
'6:06.592',-0.210,0.100
'6:06.594',-0.225,0.105
'6:06.597',-0.210,0.120
'6:06.600',-0.205,0.135
'6:06.603',-0.195,0.130
'6:06.606',-0.215,0.130
'6:06.608',-0.210,0.120
'6:06.611',-0.215,0.125
'6:06.614',-0.200,0.150
'6:06.617',-0.200,0.150
'6:06.619',-0.200,0.160
'6:06.622',-0.210,0.140
'6:06.625',-0.225,0.150
'6:06.628',-0.225,0.155
'6:06.631',-0.210,0.170
'6:06.633',-0.205,0.190
'6:06.636',-0.215,0.190
'6:06.639',-0.225,0.190
'6:06.642',-0.215,0.185
'6:06.644',-0.220,0.195
'6:06.647',-0.195,0.195
'6:06.650',-0.175,0.210
'6:06.653',-0.175,0.190
'6:06.656',-0.185,0.190
'6:06.658',-0.200,0.180
'6:06.661',-0.215,0.185
'6:06.664',-0.185,0.185
'6:06.667',-0.160,0.175
'6:06.669',-0.120,0.155
'6:06.672',-0.050,0.115
'6:06.675',0.050,0.095
'6:06.678',0.160,0.075
'6:06.681',0.295,0.055
'6:06.683',0.405,0.030
'6:06.686',0.520,-0.015
'6:06.689',0.625,-0.035
'6:06.692',0.760,-0.055
'6:06.694',0.870,-0.095
'6:06.697',0.975,-0.155
'6:06.700',1.025,-0.235
'6:06.703',1.010,-0.260
'6:06.706',0.945,-0.285
'6:06.708',0.880,-0.305
'6:06.711',0.800,-0.275
'6:06.714',0.675,-0.210
'6:06.717',0.485,-0.145
'6:06.719',0.250,-0.110
'6:06.722',0.055,-0.080
'6:06.725',-0.065,-0.050
'6:06.728',-0.115,-0.020
'6:06.731',-0.155,0.020
'6:06.733',-0.195,0.045
'6:06.736',-0.250,0.050
'6:06.739',-0.270,0.060
'6:06.742',-0.280,0.060
'6:06.744',-0.290,0.075
'6:06.747',-0.290,0.100
'6:06.750',-0.290,0.115
'6:06.753',-0.295,0.115
'6:06.756',-0.305,0.110
'6:06.758',-0.325,0.110
'6:06.761',-0.330,0.115
'6:06.764',-0.320,0.125
'6:06.767',-0.315,0.155
'6:06.769',-0.320,0.160
'6:06.772',-0.335,0.150
'6:06.775',-0.350,0.140
'6:06.778',-0.360,0.150
'6:06.781',-0.370,0.165
'6:06.783',-0.355,0.180
'6:06.786',-0.370,0.185
'6:06.789',-0.380,0.175
'6:06.792',-0.395,0.180
'6:06.794',-0.400,0.200
'6:06.797',-0.390,0.210
'6:06.800',-0.375,0.215
'6:06.803',-0.370,0.215
'6:06.806',-0.385,0.205
'6:06.808',-0.400,0.190
'6:06.811',-0.400,0.185
'6:06.814',-0.395,0.200
'6:06.817',-0.390,0.210
'6:06.819',-0.390,0.190
'6:06.822',-0.405,0.160
'6:06.825',-0.405,0.155
'6:06.828',-0.420,0.165
'6:06.831',-0.415,0.155
'6:06.833',-0.390,0.170
'6:06.836',-0.390,0.165
'6:06.839',-0.395,0.135
'6:06.842',-0.405,0.135
'6:06.844',-0.405,0.150
'6:06.847',-0.385,0.155
'6:06.850',-0.370,0.165
'6:06.853',-0.375,0.170
'6:06.856',-0.375,0.140
'6:06.858',-0.395,0.135
'6:06.861',-0.385,0.150
'6:06.864',-0.380,0.145
'6:06.867',-0.360,0.140
'6:06.869',-0.355,0.130
'6:06.872',-0.345,0.130
'6:06.875',-0.350,0.120
'6:06.878',-0.370,0.125
'6:06.881',-0.340,0.155
'6:06.883',-0.340,0.155
'6:06.886',-0.335,0.150
'6:06.889',-0.340,0.145
'6:06.892',-0.345,0.140
'6:06.894',-0.350,0.125
'6:06.897',-0.355,0.135
'6:06.900',-0.325,0.165
'6:06.903',-0.325,0.165
'6:06.906',-0.320,0.160
'6:06.908',-0.320,0.155
'6:06.911',-0.325,0.160
'6:06.914',-0.315,0.175
'6:06.917',-0.305,0.180
'6:06.919',-0.300,0.185
'6:06.922',-0.300,0.170
'6:06.925',-0.315,0.165
'6:06.928',-0.320,0.175
'6:06.931',-0.305,0.180
'6:06.933',-0.300,0.195
'6:06.936',-0.290,0.195
'6:06.939',-0.295,0.175
'6:06.942',-0.300,0.180
'6:06.944',-0.300,0.170
'6:06.947',-0.295,0.190
'6:06.950',-0.270,0.205
'6:06.953',-0.275,0.195
'6:06.956',-0.255,0.185
'6:06.958',-0.265,0.165
'6:06.961',-0.255,0.165
'6:06.964',-0.240,0.155
'6:06.967',-0.230,0.150
'6:06.969',-0.230,0.140
'6:06.972',-0.230,0.125
'6:06.975',-0.235,0.100
'6:06.978',-0.235,0.085
'6:06.981',-0.220,0.085
'6:06.983',-0.220,0.075
'6:06.986',-0.205,0.070
'6:06.989',-0.220,0.070
'6:06.992',-0.225,0.065
'6:06.994',-0.220,0.065
'6:06.997',-0.220,0.095
'6:07.000',-0.205,0.100
'6:07.003',-0.195,0.105
'6:07.006',-0.190,0.095
'6:07.008',-0.205,0.095
'6:07.011',-0.195,0.100
'6:07.014',-0.195,0.110
'6:07.017',-0.185,0.105
'6:07.019',-0.165,0.120
'6:07.022',-0.175,0.105
'6:07.025',-0.190,0.100
'6:07.028',-0.195,0.105
'6:07.031',-0.185,0.120
'6:07.033',-0.190,0.120
'6:07.036',-0.180,0.110
'6:07.039',-0.190,0.115
'6:07.042',-0.195,0.105
'6:07.044',-0.225,0.120
'6:07.047',-0.200,0.130
'6:07.050',-0.190,0.140
'6:07.053',-0.185,0.150
'6:07.056',-0.190,0.135
'6:07.058',-0.195,0.125
'6:07.061',-0.195,0.140
'6:07.064',-0.190,0.155
'6:07.067',-0.190,0.155
'6:07.069',-0.185,0.155
'6:07.072',-0.205,0.155
'6:07.075',-0.210,0.155
'6:07.078',-0.215,0.165
'6:07.081',-0.200,0.185
'6:07.083',-0.185,0.195
'6:07.086',-0.190,0.190
'6:07.089',-0.205,0.190
'6:07.092',-0.220,0.180
'6:07.094',-0.220,0.200
'6:07.097',-0.220,0.215
'6:07.100',-0.220,0.230
'6:07.103',-0.210,0.225
'6:07.106',-0.205,0.225
'6:07.108',-0.220,0.210
'6:07.111',-0.220,0.225
'6:07.114',-0.200,0.225
'6:07.117',-0.195,0.240
'6:07.119',-0.205,0.225
'6:07.122',-0.220,0.205
'6:07.125',-0.250,0.190
'6:07.128',-0.250,0.170
'6:07.131',-0.240,0.140
'6:07.133',-0.215,0.115
'6:07.136',-0.210,0.085
'6:07.139',-0.225,0.070
'6:07.142',-0.250,0.070
'6:07.144',-0.235,0.085
'6:07.147',-0.200,0.090
'6:07.150',-0.180,0.100
'6:07.153',-0.180,0.095
'6:07.156',-0.200,0.100
'6:07.158',-0.200,0.095
'6:07.161',-0.190,0.105
'6:07.164',-0.185,0.115
'6:07.167',-0.170,0.120
'6:07.169',-0.160,0.120
'6:07.172',-0.170,0.105
'6:07.175',-0.185,0.095
'6:07.178',-0.190,0.095
'6:07.181',-0.170,0.120
'6:07.183',-0.170,0.130
'6:07.186',-0.170,0.130
'6:07.189',-0.180,0.125
'6:07.192',-0.185,0.110
'6:07.194',-0.195,0.120
'6:07.197',-0.200,0.130
'6:07.200',-0.190,0.135
'6:07.203',-0.190,0.135
'6:07.206',-0.200,0.120
'6:07.208',-0.220,0.130
'6:07.211',-0.235,0.130
'6:07.214',-0.205,0.145
'6:07.217',-0.200,0.170
'6:07.219',-0.200,0.160
'6:07.222',-0.220,0.155
'6:07.225',-0.220,0.135
'6:07.228',-0.220,0.145
'6:07.231',-0.220,0.160
'6:07.233',-0.205,0.180
'6:07.236',-0.215,0.180
'6:07.239',-0.230,0.175
'6:07.242',-0.235,0.170
'6:07.244',-0.240,0.185
'6:07.247',-0.240,0.195
'6:07.250',-0.225,0.215
'6:07.253',-0.225,0.215
'6:07.256',-0.235,0.225
'6:07.258',-0.245,0.210
'6:07.261',-0.245,0.220
'6:07.264',-0.230,0.230
'6:07.267',-0.220,0.215
'6:07.269',-0.210,0.200
'6:07.272',-0.230,0.175
'6:07.275',-0.230,0.160
'6:07.278',-0.240,0.150
'6:07.281',-0.225,0.155
'6:07.283',-0.210,0.150
'6:07.286',-0.210,0.130
'6:07.289',-0.210,0.115
'6:07.292',-0.225,0.090
'6:07.294',-0.225,0.090
'6:07.297',-0.220,0.095
'6:07.300',-0.200,0.095
'6:07.303',-0.200,0.085
'6:07.306',-0.210,0.080
'6:07.308',-0.220,0.070
'6:07.311',-0.220,0.090
'6:07.314',-0.215,0.095
'6:07.317',-0.185,0.105
'6:07.319',-0.175,0.100
'6:07.322',-0.190,0.080
'6:07.325',-0.200,0.095
'6:07.328',-0.200,0.095
'6:07.331',-0.190,0.120
'6:07.333',-0.180,0.125
'6:07.336',-0.190,0.120
'6:07.339',-0.195,0.110
'6:07.342',-0.195,0.100
'6:07.344',-0.185,0.110
'6:07.347',-0.185,0.120
'6:07.350',-0.155,0.145
'6:07.353',-0.160,0.135
'6:07.356',-0.180,0.130
'6:07.358',-0.190,0.115
'6:07.361',-0.195,0.115
'6:07.364',-0.185,0.130
'6:07.367',-0.175,0.150
'6:07.369',-0.170,0.145
'6:07.372',-0.185,0.135
'6:07.375',-0.205,0.130
'6:07.378',-0.205,0.150
'6:07.381',-0.210,0.155
'6:07.383',-0.200,0.180
'6:07.386',-0.205,0.175
'6:07.389',-0.195,0.145
'6:07.392',-0.160,0.140
'6:07.394',-0.095,0.140
'6:07.397',0.015,0.130
'6:07.400',0.140,0.125
'6:07.403',0.255,0.090
'6:07.406',0.335,0.055
'6:07.408',0.415,0.015
'6:07.411',0.525,0.005
'6:07.414',0.665,0.015
'6:07.417',0.795,-0.005
'6:07.419',0.865,-0.060
'6:07.422',0.920,-0.135
'6:07.425',0.900,-0.180
'6:07.428',0.870,-0.190
'6:07.431',0.835,-0.190
'6:07.433',0.775,-0.185
'6:07.436',0.680,-0.165
'6:07.439',0.535,-0.135
'6:07.442',0.335,-0.110
'6:07.444',0.115,-0.060
'6:07.447',-0.035,-0.015
'6:07.450',-0.115,0.015
'6:07.453',-0.135,0.035
'6:07.456',-0.190,0.025
'6:07.458',-0.240,0.045
'6:07.461',-0.285,0.055
'6:07.464',-0.290,0.070
'6:07.467',-0.285,0.085
'6:07.469',-0.290,0.095
'6:07.472',-0.310,0.100
'6:07.475',-0.315,0.100
'6:07.478',-0.335,0.110
'6:07.481',-0.335,0.120
'6:07.483',-0.325,0.135
'6:07.486',-0.305,0.140
'6:07.489',-0.325,0.140
'6:07.492',-0.335,0.125
'6:07.494',-0.350,0.130
'6:07.497',-0.340,0.140
'6:07.500',-0.325,0.170
'6:07.503',-0.325,0.165
'6:07.506',-0.340,0.155
'6:07.508',-0.370,0.165
'6:07.511',-0.380,0.160
'6:07.514',-0.365,0.175
'6:07.517',-0.350,0.175
'6:07.519',-0.335,0.175
'6:07.522',-0.355,0.160
'6:07.525',-0.370,0.155
'6:07.528',-0.390,0.155
'6:07.531',-0.375,0.175
'6:07.533',-0.370,0.185
'6:07.536',-0.375,0.190
'6:07.539',-0.390,0.185
'6:07.542',-0.405,0.170
'6:07.544',-0.395,0.185
'6:07.547',-0.385,0.205
'6:07.550',-0.380,0.230
'6:07.553',-0.375,0.225
'6:07.556',-0.390,0.220
'6:07.558',-0.410,0.205
'6:07.561',-0.410,0.220
'6:07.564',-0.395,0.235
'6:07.567',-0.405,0.250
'6:07.569',-0.395,0.230
'6:07.572',-0.420,0.240
'6:07.575',-0.430,0.230
'6:07.578',-0.435,0.225
'6:07.581',-0.410,0.230
'6:07.583',-0.395,0.220
'6:07.586',-0.410,0.220
'6:07.589',-0.405,0.195
'6:07.592',-0.425,0.175
'6:07.594',-0.425,0.175
'6:07.597',-0.430,0.180
'6:07.600',-0.415,0.185
'6:07.603',-0.400,0.185
'6:07.606',-0.410,0.160
'6:07.608',-0.415,0.135
'6:07.611',-0.425,0.120
'6:07.614',-0.390,0.135
'6:07.617',-0.370,0.130
'6:07.619',-0.370,0.125
'6:07.622',-0.375,0.105
'6:07.625',-0.390,0.085
'6:07.628',-0.375,0.100
'6:07.631',-0.355,0.115
'6:07.633',-0.355,0.120
'6:07.636',-0.360,0.125
'6:07.639',-0.350,0.110
'6:07.642',-0.355,0.100
'6:07.644',-0.365,0.115
'6:07.647',-0.330,0.135
'6:07.650',-0.310,0.140
'6:07.653',-0.310,0.135
'6:07.656',-0.330,0.125
'6:07.658',-0.320,0.115
'6:07.661',-0.310,0.120
'6:07.664',-0.305,0.135
'6:07.667',-0.290,0.140
'6:07.669',-0.275,0.145
'6:07.672',-0.270,0.160
'6:07.675',-0.295,0.150
'6:07.678',-0.280,0.150
'6:07.681',-0.265,0.155
'6:07.683',-0.250,0.170
'6:07.686',-0.260,0.165
'6:07.689',-0.255,0.165
'6:07.692',-0.275,0.155
'6:07.694',-0.270,0.155
'6:07.697',-0.250,0.170
'6:07.700',-0.225,0.190
'6:07.703',-0.220,0.200
'6:07.706',-0.230,0.190
'6:07.708',-0.235,0.185
'6:07.711',-0.240,0.200
'6:07.714',-0.235,0.200
'6:07.717',-0.220,0.205
'6:07.719',-0.205,0.195
'6:07.722',-0.220,0.195
'6:07.725',-0.235,0.175
'6:07.728',-0.240,0.185
'6:07.731',-0.230,0.175
'6:07.733',-0.220,0.200
'6:07.736',-0.215,0.190
'6:07.739',-0.235,0.190
'6:07.742',-0.250,0.180
'6:07.744',-0.250,0.190
'6:07.747',-0.235,0.200
'6:07.750',-0.225,0.205
'6:07.753',-0.220,0.205
'6:07.756',-0.230,0.200
'6:07.758',-0.240,0.200
'6:07.761',-0.245,0.200
'6:07.764',-0.230,0.205
'6:07.767',-0.215,0.220
'6:07.769',-0.220,0.210
'6:07.772',-0.230,0.205
'6:07.775',-0.230,0.185
'6:07.778',-0.235,0.185
'6:07.781',-0.220,0.190
'6:07.783',-0.220,0.200
'6:07.786',-0.215,0.215
'6:07.789',-0.220,0.190
'6:07.792',-0.225,0.190
'6:07.794',-0.225,0.205
'6:07.797',-0.235,0.210
'6:07.800',-0.215,0.230
'6:07.803',-0.210,0.230
'6:07.806',-0.205,0.220
'6:07.808',-0.205,0.230
'6:07.811',-0.215,0.230
'6:07.814',-0.220,0.250
'6:07.817',-0.195,0.245
'6:07.819',-0.190,0.235
'6:07.822',-0.205,0.220
'6:07.825',-0.205,0.190
'6:07.828',-0.210,0.185
'6:07.831',-0.210,0.170
'6:07.833',-0.195,0.175
'6:07.836',-0.190,0.165
'6:07.839',-0.195,0.165
'6:07.842',-0.205,0.150
'6:07.844',-0.230,0.130
'6:07.847',-0.220,0.150
'6:07.850',-0.215,0.155
'6:07.853',-0.205,0.150
'6:07.856',-0.215,0.145
'6:07.858',-0.225,0.130
'6:07.861',-0.215,0.140
'6:07.864',-0.220,0.140
'6:07.867',-0.205,0.160
'6:07.869',-0.210,0.150
'6:07.872',-0.220,0.145
'6:07.875',-0.230,0.130
'6:07.878',-0.245,0.135
'6:07.881',-0.230,0.150
'6:07.883',-0.210,0.155
'6:07.886',-0.210,0.175
'6:07.889',-0.225,0.175
'6:07.892',-0.240,0.160
'6:07.894',-0.250,0.170
'6:07.897',-0.230,0.185
'6:07.900',-0.220,0.200
'6:07.903',-0.220,0.195
'6:07.906',-0.225,0.190
'6:07.908',-0.235,0.175
'6:07.911',-0.250,0.175
'6:07.914',-0.225,0.195
'6:07.917',-0.215,0.210
'6:07.919',-0.210,0.190
'6:07.922',-0.215,0.185
'6:07.925',-0.225,0.175
'6:07.928',-0.245,0.190
'6:07.931',-0.210,0.190
'6:07.933',-0.205,0.220
'6:07.936',-0.195,0.205
'6:07.939',-0.185,0.190
'6:07.942',-0.195,0.190
'6:07.944',-0.200,0.175
'6:07.947',-0.200,0.180
'6:07.950',-0.175,0.180
'6:07.953',-0.175,0.180
'6:07.956',-0.185,0.160
'6:07.958',-0.195,0.155
'6:07.961',-0.200,0.165
'6:07.964',-0.195,0.170
'6:07.967',-0.175,0.195
'6:07.969',-0.170,0.180
'6:07.972',-0.180,0.170
'6:07.975',-0.195,0.160
'6:07.978',-0.210,0.160
'6:07.981',-0.200,0.160
'6:07.983',-0.205,0.170
'6:07.986',-0.190,0.150
'6:07.989',-0.215,0.150
'6:07.992',-0.230,0.140
'6:07.994',-0.235,0.135
'6:07.997',-0.235,0.145
'6:08.000',-0.220,0.150
'6:08.003',-0.220,0.140
'6:08.006',-0.230,0.125
'6:08.008',-0.235,0.130
'6:08.011',-0.240,0.145
'6:08.014',-0.230,0.140
'6:08.017',-0.230,0.160
'6:08.019',-0.230,0.155
'6:08.022',-0.240,0.150
'6:08.025',-0.240,0.140
'6:08.028',-0.245,0.150
'6:08.031',-0.250,0.155
'6:08.033',-0.235,0.165
'6:08.036',-0.235,0.185
'6:08.039',-0.245,0.165
'6:08.042',-0.255,0.180
'6:08.044',-0.245,0.185
'6:08.047',-0.240,0.195
'6:08.050',-0.220,0.220
'6:08.053',-0.215,0.210
'6:08.056',-0.225,0.195
'6:08.058',-0.240,0.175
'6:08.061',-0.240,0.180
'6:08.064',-0.225,0.170
'6:08.067',-0.210,0.160
'6:08.069',-0.215,0.160
'6:08.072',-0.220,0.155
'6:08.075',-0.220,0.145
'6:08.078',-0.195,0.160
'6:08.081',-0.200,0.160
'6:08.083',-0.185,0.180
'6:08.086',-0.170,0.165
'6:08.089',-0.170,0.160
'6:08.092',-0.185,0.155
'6:08.094',-0.185,0.140
'6:08.097',-0.165,0.155
'6:08.100',-0.155,0.160
'6:08.103',-0.160,0.165
'6:08.106',-0.155,0.150
'6:08.108',-0.160,0.155
'6:08.111',-0.170,0.165
'6:08.114',-0.175,0.180
'6:08.117',-0.175,0.190
'6:08.119',-0.150,0.170
'6:08.122',-0.120,0.145
'6:08.125',-0.045,0.115
'6:08.128',0.040,0.110
'6:08.131',0.170,0.080
'6:08.133',0.280,0.070
'6:08.136',0.390,0.035
'6:08.139',0.485,-0.030
'6:08.142',0.600,-0.060
'6:08.144',0.720,-0.060
'6:08.147',0.830,-0.075
'6:08.150',0.920,-0.100
'6:08.153',0.945,-0.150
'6:08.156',0.915,-0.185
'6:08.158',0.855,-0.205
'6:08.161',0.785,-0.185
'6:08.164',0.730,-0.160
'6:08.167',0.625,-0.105
'6:08.169',0.440,-0.070
'6:08.172',0.210,-0.015
'6:08.175',0.015,0.000
'6:08.178',-0.105,0.045
'6:08.181',-0.145,0.080
'6:08.183',-0.170,0.110
'6:08.186',-0.215,0.130
'6:08.189',-0.270,0.140
'6:08.192',-0.300,0.165
'6:08.194',-0.305,0.175
'6:08.197',-0.290,0.200
'6:08.200',-0.285,0.210
'6:08.203',-0.305,0.220
'6:08.206',-0.315,0.215
'6:08.208',-0.320,0.205
'6:08.211',-0.320,0.225
'6:08.214',-0.330,0.230
'6:08.217',-0.315,0.240
'6:08.219',-0.315,0.240
'6:08.222',-0.330,0.225
'6:08.225',-0.345,0.200
'6:08.228',-0.350,0.205
'6:08.231',-0.340,0.220
'6:08.233',-0.345,0.230
'6:08.236',-0.335,0.225
'6:08.239',-0.335,0.205
'6:08.242',-0.355,0.210
'6:08.244',-0.370,0.195
'6:08.247',-0.360,0.205
'6:08.250',-0.345,0.205
'6:08.253',-0.330,0.195
'6:08.256',-0.345,0.170
'6:08.258',-0.345,0.150
'6:08.261',-0.365,0.155
'6:08.264',-0.360,0.165
'6:08.267',-0.360,0.165
'6:08.269',-0.365,0.170
'6:08.272',-0.365,0.155
'6:08.275',-0.360,0.150
'6:08.278',-0.375,0.165
'6:08.281',-0.365,0.170
'6:08.283',-0.345,0.175
'6:08.286',-0.350,0.175
'6:08.289',-0.375,0.160
'6:08.292',-0.375,0.160
'6:08.294',-0.380,0.165
'6:08.297',-0.375,0.150
'6:08.300',-0.380,0.165
'6:08.303',-0.375,0.165
'6:08.306',-0.370,0.155
'6:08.308',-0.375,0.145
'6:08.311',-0.380,0.160
'6:08.314',-0.375,0.165
'6:08.317',-0.365,0.180
'6:08.319',-0.360,0.185
'6:08.322',-0.365,0.155
'6:08.325',-0.365,0.165
'6:08.328',-0.380,0.170
'6:08.331',-0.360,0.190
'6:08.333',-0.355,0.195
'6:08.336',-0.355,0.185
'6:08.339',-0.365,0.185
'6:08.342',-0.370,0.165
'6:08.344',-0.385,0.175
'6:08.347',-0.375,0.195
'6:08.350',-0.345,0.205
'6:08.353',-0.355,0.205
'6:08.356',-0.360,0.210
'6:08.358',-0.355,0.205
'6:08.361',-0.360,0.210
'6:08.364',-0.340,0.220
'6:08.367',-0.320,0.245
'6:08.369',-0.325,0.245
'6:08.372',-0.320,0.235
'6:08.375',-0.330,0.220
'6:08.378',-0.330,0.210
'6:08.381',-0.315,0.210
'6:08.383',-0.305,0.220
'6:08.386',-0.295,0.215
'6:08.389',-0.295,0.195
'6:08.392',-0.305,0.170
'6:08.394',-0.330,0.165
'6:08.397',-0.300,0.170
'6:08.400',-0.280,0.185
'6:08.403',-0.265,0.180
'6:08.406',-0.275,0.170
'6:08.408',-0.280,0.150
'6:08.411',-0.250,0.160
'6:08.414',-0.235,0.180
'6:08.417',-0.220,0.180
'6:08.419',-0.205,0.165
'6:08.422',-0.220,0.170
'6:08.425',-0.215,0.155
'6:08.428',-0.215,0.160
'6:08.431',-0.185,0.175
'6:08.433',-0.175,0.180
'6:08.436',-0.175,0.190
'6:08.439',-0.170,0.180
'6:08.442',-0.190,0.180
'6:08.444',-0.185,0.185
'6:08.447',-0.185,0.190
'6:08.450',-0.185,0.185
'6:08.453',-0.180,0.175
'6:08.456',-0.195,0.160
'6:08.458',-0.200,0.150
'6:08.461',-0.205,0.145
'6:08.464',-0.190,0.160
'6:08.467',-0.190,0.170
'6:08.469',-0.180,0.170
'6:08.472',-0.180,0.150
'6:08.475',-0.190,0.145
'6:08.478',-0.195,0.155
'6:08.481',-0.180,0.170
'6:08.483',-0.165,0.185
'6:08.486',-0.180,0.180
'6:08.489',-0.185,0.170
'6:08.492',-0.200,0.170
'6:08.494',-0.210,0.175
'6:08.497',-0.190,0.190
'6:08.500',-0.195,0.210
'6:08.503',-0.200,0.220
'6:08.506',-0.200,0.210
'6:08.508',-0.210,0.205
'6:08.511',-0.215,0.215
'6:08.514',-0.205,0.225
'6:08.517',-0.190,0.245
'6:08.519',-0.195,0.230
'6:08.522',-0.200,0.225
'6:08.525',-0.205,0.210
'6:08.528',-0.210,0.210
'6:08.531',-0.200,0.210
'6:08.533',-0.185,0.215
'6:08.536',-0.180,0.205
'6:08.539',-0.190,0.185
'6:08.542',-0.200,0.175
'6:08.544',-0.195,0.185
'6:08.547',-0.185,0.200
'6:08.550',-0.170,0.210
'6:08.553',-0.175,0.205
'6:08.556',-0.175,0.205
'6:08.558',-0.185,0.205
'6:08.561',-0.175,0.195
'6:08.564',-0.160,0.210
'6:08.567',-0.155,0.215
'6:08.569',-0.135,0.235
'6:08.572',-0.155,0.220
'6:08.575',-0.165,0.215
'6:08.578',-0.170,0.215
'6:08.581',-0.150,0.210
'6:08.583',-0.145,0.220
'6:08.586',-0.150,0.210
'6:08.589',-0.150,0.170
'6:08.592',-0.170,0.155
'6:08.594',-0.170,0.150
'6:08.597',-0.170,0.150
'6:08.600',-0.160,0.150
'6:08.603',-0.160,0.145
'6:08.606',-0.175,0.135
'6:08.608',-0.175,0.140
'6:08.611',-0.185,0.135
'6:08.614',-0.175,0.155
'6:08.617',-0.170,0.145
'6:08.619',-0.165,0.145
'6:08.622',-0.175,0.140
'6:08.625',-0.185,0.135
'6:08.628',-0.190,0.145
'6:08.631',-0.195,0.155
'6:08.633',-0.175,0.175
'6:08.636',-0.190,0.170
'6:08.639',-0.205,0.155
'6:08.642',-0.205,0.160
'6:08.644',-0.220,0.170
'6:08.647',-0.200,0.195
'6:08.650',-0.185,0.215
'6:08.653',-0.185,0.205
'6:08.656',-0.190,0.195
'6:08.658',-0.200,0.180
'6:08.661',-0.195,0.180
'6:08.664',-0.205,0.190
'6:08.667',-0.190,0.195
'6:08.669',-0.190,0.190
'6:08.672',-0.185,0.180
'6:08.675',-0.195,0.155
'6:08.678',-0.205,0.165
'6:08.681',-0.200,0.170
'6:08.683',-0.190,0.180
'6:08.686',-0.195,0.175
'6:08.689',-0.195,0.160
'6:08.692',-0.185,0.145
'6:08.694',-0.210,0.155
'6:08.697',-0.190,0.165
'6:08.700',-0.170,0.185
'6:08.703',-0.155,0.185
'6:08.706',-0.165,0.170
'6:08.708',-0.170,0.165
'6:08.711',-0.170,0.160
'6:08.714',-0.165,0.165
'6:08.717',-0.165,0.190
'6:08.719',-0.145,0.180
'6:08.722',-0.150,0.170
'6:08.725',-0.155,0.165
'6:08.728',-0.155,0.165
'6:08.731',-0.155,0.165
'6:08.733',-0.155,0.180
'6:08.736',-0.155,0.165
'6:08.739',-0.155,0.160
'6:08.742',-0.165,0.155
'6:08.744',-0.170,0.145
'6:08.747',-0.175,0.160
'6:08.750',-0.165,0.160
'6:08.753',-0.160,0.170
'6:08.756',-0.170,0.140
'6:08.758',-0.170,0.140
'6:08.761',-0.170,0.140
'6:08.764',-0.165,0.155
'6:08.767',-0.165,0.155
'6:08.769',-0.175,0.155
'6:08.772',-0.180,0.140
'6:08.775',-0.185,0.145
'6:08.778',-0.195,0.150
'6:08.781',-0.185,0.145
'6:08.783',-0.190,0.165
'6:08.786',-0.190,0.170
'6:08.789',-0.185,0.150
'6:08.792',-0.200,0.155
'6:08.794',-0.210,0.165
'6:08.797',-0.200,0.175
'6:08.800',-0.205,0.180
'6:08.803',-0.210,0.195
'6:08.806',-0.195,0.180
'6:08.808',-0.210,0.165
'6:08.811',-0.195,0.170
'6:08.814',-0.195,0.180
'6:08.817',-0.190,0.190
'6:08.819',-0.175,0.190
'6:08.822',-0.185,0.165
'6:08.825',-0.205,0.160
'6:08.828',-0.210,0.175
'6:08.831',-0.190,0.165
'6:08.833',-0.185,0.145
'6:08.836',-0.170,0.130
'6:08.839',-0.185,0.120
'6:08.842',-0.180,0.110
'6:08.844',-0.175,0.110
'6:08.847',-0.160,0.120
'6:08.850',-0.150,0.125
'6:08.853',-0.140,0.130
'6:08.856',-0.145,0.140
'6:08.858',-0.150,0.130
'6:08.861',-0.145,0.140
'6:08.864',-0.145,0.155
'6:08.867',-0.140,0.165
'6:08.869',-0.115,0.155
'6:08.872',-0.095,0.135
'6:08.875',-0.045,0.110
'6:08.878',0.060,0.100
'6:08.881',0.175,0.080
'6:08.883',0.300,0.065
'6:08.886',0.395,0.020
'6:08.889',0.510,-0.040
'6:08.892',0.595,-0.080
'6:08.894',0.715,-0.090
'6:08.897',0.835,-0.090
'6:08.900',0.935,-0.120
'6:08.903',1.000,-0.175
'6:08.906',0.995,-0.205
'6:08.908',0.960,-0.230
'6:08.911',0.905,-0.230
'6:08.914',0.850,-0.215
'6:08.917',0.765,-0.165
'6:08.919',0.630,-0.115
'6:08.922',0.420,-0.065
'6:08.925',0.175,-0.030
'6:08.928',0.000,0.010
'6:08.931',-0.060,0.040
'6:08.933',-0.080,0.075
'6:08.936',-0.115,0.105
'6:08.939',-0.175,0.110
'6:08.942',-0.230,0.130
'6:08.944',-0.245,0.130
'6:08.947',-0.260,0.165
'6:08.950',-0.260,0.185
'6:08.953',-0.270,0.175
'6:08.956',-0.280,0.175
'6:08.958',-0.300,0.170
'6:08.961',-0.310,0.175
'6:08.964',-0.310,0.180
'6:08.967',-0.310,0.205
'6:08.969',-0.310,0.185
'6:08.972',-0.300,0.185
'6:08.975',-0.315,0.185
'6:08.978',-0.320,0.180
'6:08.981',-0.310,0.195
'6:08.983',-0.315,0.200
'6:08.986',-0.315,0.200
'6:08.989',-0.320,0.180
'6:08.992',-0.340,0.170
'6:08.994',-0.345,0.180
'6:08.997',-0.335,0.180
'6:09.000',-0.330,0.175
'6:09.003',-0.345,0.175
'6:09.006',-0.350,0.160
'6:09.008',-0.350,0.165
'6:09.011',-0.350,0.175
'6:09.014',-0.350,0.180
'6:09.017',-0.340,0.195
'6:09.019',-0.345,0.185
'6:09.022',-0.335,0.180
'6:09.025',-0.350,0.180
'6:09.028',-0.360,0.175
'6:09.031',-0.345,0.190
'6:09.033',-0.340,0.190
'6:09.036',-0.335,0.195
'6:09.039',-0.335,0.165
'6:09.042',-0.345,0.170
'6:09.044',-0.355,0.165
'6:09.047',-0.350,0.195
'6:09.050',-0.330,0.190
'6:09.053',-0.330,0.205
'6:09.056',-0.345,0.185
'6:09.058',-0.360,0.175
'6:09.061',-0.365,0.170
'6:09.064',-0.360,0.185
'6:09.067',-0.350,0.190
'6:09.069',-0.350,0.195
'6:09.072',-0.350,0.175
'6:09.075',-0.370,0.170
'6:09.078',-0.370,0.175
'6:09.081',-0.365,0.190
'6:09.083',-0.345,0.195
'6:09.086',-0.335,0.195
'6:09.089',-0.350,0.170
'6:09.092',-0.355,0.170
'6:09.094',-0.355,0.170
'6:09.097',-0.345,0.170
'6:09.100',-0.335,0.175
'6:09.103',-0.320,0.185
'6:09.106',-0.330,0.170
'6:09.108',-0.345,0.165
'6:09.111',-0.350,0.175
'6:09.114',-0.345,0.180
'6:09.117',-0.340,0.200
'6:09.119',-0.325,0.210
'6:09.122',-0.320,0.200
'6:09.125',-0.330,0.185
'6:09.128',-0.330,0.185
'6:09.131',-0.320,0.200
'6:09.133',-0.305,0.225
'6:09.136',-0.280,0.220
'6:09.139',-0.285,0.210
'6:09.142',-0.295,0.205
'6:09.144',-0.295,0.205
'6:09.147',-0.280,0.215
'6:09.150',-0.270,0.235
'6:09.153',-0.270,0.230
'6:09.156',-0.255,0.215
'6:09.158',-0.255,0.205
'6:09.161',-0.265,0.185
'6:09.164',-0.245,0.200
'6:09.167',-0.225,0.200
'6:09.169',-0.220,0.205
'6:09.172',-0.210,0.195
'6:09.175',-0.215,0.180
'6:09.178',-0.215,0.175
'6:09.181',-0.205,0.200
'6:09.183',-0.185,0.195
'6:09.186',-0.170,0.190
'6:09.189',-0.170,0.180
'6:09.192',-0.175,0.175
'6:09.194',-0.170,0.170
'6:09.197',-0.160,0.180
'6:09.200',-0.165,0.170
'6:09.203',-0.150,0.170
'6:09.206',-0.150,0.155
'6:09.208',-0.170,0.145
'6:09.211',-0.170,0.145
'6:09.214',-0.175,0.145
'6:09.217',-0.170,0.155
'6:09.219',-0.170,0.155
'6:09.222',-0.165,0.135
'6:09.225',-0.180,0.125
'6:09.228',-0.175,0.120
'6:09.231',-0.180,0.140
'6:09.233',-0.170,0.150
'6:09.236',-0.165,0.150
'6:09.239',-0.175,0.150
'6:09.242',-0.185,0.135
'6:09.244',-0.190,0.150
'6:09.247',-0.190,0.170
'6:09.250',-0.185,0.185
'6:09.253',-0.190,0.185
'6:09.256',-0.190,0.195
'6:09.258',-0.195,0.190
'6:09.261',-0.210,0.190
'6:09.264',-0.200,0.215
'6:09.267',-0.195,0.215
'6:09.269',-0.200,0.230
'6:09.272',-0.205,0.225
'6:09.275',-0.215,0.235
'6:09.278',-0.210,0.235
'6:09.281',-0.205,0.260
'6:09.283',-0.185,0.275
'6:09.286',-0.190,0.260
'6:09.289',-0.175,0.265
'6:09.292',-0.180,0.250
'6:09.294',-0.180,0.250
'6:09.297',-0.175,0.260
'6:09.300',-0.165,0.260
'6:09.303',-0.155,0.245
'6:09.306',-0.180,0.215
'6:09.308',-0.165,0.180
'6:09.311',-0.180,0.165
'6:09.314',-0.180,0.155
'6:09.317',-0.160,0.165
'6:09.319',-0.160,0.145
'6:09.322',-0.155,0.135
'6:09.325',-0.160,0.125
'6:09.328',-0.175,0.130
'6:09.331',-0.150,0.140
'6:09.333',-0.135,0.140
'6:09.336',-0.135,0.140
'6:09.339',-0.130,0.145
'6:09.342',-0.165,0.135
'6:09.344',-0.160,0.140
'6:09.347',-0.155,0.145
'6:09.350',-0.165,0.160
'6:09.353',-0.145,0.165
'6:09.356',-0.150,0.155
'6:09.358',-0.185,0.155
'6:09.361',-0.190,0.150
'6:09.364',-0.180,0.165
'6:09.367',-0.165,0.175
'6:09.369',-0.170,0.180
'6:09.372',-0.180,0.165
'6:09.375',-0.190,0.165
'6:09.378',-0.200,0.170
'6:09.381',-0.195,0.180
'6:09.383',-0.195,0.190
'6:09.386',-0.180,0.205
'6:09.389',-0.195,0.180
'6:09.392',-0.205,0.180
'6:09.394',-0.205,0.190
'6:09.397',-0.210,0.210
'6:09.400',-0.200,0.225
'6:09.403',-0.200,0.215
'6:09.406',-0.200,0.215
'6:09.408',-0.225,0.210
'6:09.411',-0.220,0.230
'6:09.414',-0.210,0.235
'6:09.417',-0.205,0.265
'6:09.419',-0.200,0.255
'6:09.422',-0.195,0.235
'6:09.425',-0.220,0.215
'6:09.428',-0.210,0.205
'6:09.431',-0.190,0.210
'6:09.433',-0.190,0.200
'6:09.436',-0.185,0.185
'6:09.439',-0.190,0.155
'6:09.442',-0.190,0.160
'6:09.444',-0.195,0.155
'6:09.447',-0.195,0.155
'6:09.450',-0.170,0.165
'6:09.453',-0.185,0.160
'6:09.456',-0.175,0.155
'6:09.458',-0.190,0.165
'6:09.461',-0.190,0.160
'6:09.464',-0.180,0.160
'6:09.467',-0.160,0.155
'6:09.469',-0.150,0.160
'6:09.472',-0.155,0.150
'6:09.475',-0.170,0.155
'6:09.478',-0.175,0.155
'6:09.481',-0.170,0.175
'6:09.483',-0.150,0.175
'6:09.486',-0.160,0.170
'6:09.489',-0.160,0.155
'6:09.492',-0.175,0.140
'6:09.494',-0.175,0.155
'6:09.497',-0.170,0.155
'6:09.500',-0.160,0.170
'6:09.503',-0.155,0.175
'6:09.506',-0.170,0.170
'6:09.508',-0.185,0.160
'6:09.511',-0.185,0.150
'6:09.514',-0.185,0.160
'6:09.517',-0.165,0.165
'6:09.519',-0.155,0.170
'6:09.522',-0.150,0.155
'6:09.525',-0.165,0.150
'6:09.528',-0.165,0.175
'6:09.531',-0.170,0.190
'6:09.533',-0.175,0.200
'6:09.536',-0.175,0.205
'6:09.539',-0.165,0.185
'6:09.542',-0.155,0.165
'6:09.544',-0.075,0.155
'6:09.547',0.045,0.155
'6:09.550',0.175,0.125
'6:09.553',0.305,0.105
'6:09.556',0.430,0.060
'6:09.558',0.535,0.015
'6:09.561',0.670,0.000
'6:09.564',0.820,-0.010
'6:09.567',0.940,-0.075
'6:09.569',1.010,-0.130
'6:09.572',1.010,-0.180
'6:09.575',0.965,-0.200
'6:09.578',0.875,-0.175
'6:09.581',0.770,-0.135
'6:09.583',0.645,-0.070
'6:09.586',0.435,-0.040
'6:09.589',0.185,0.000
'6:09.592',-0.020,0.035
'6:09.594',-0.100,0.055
'6:09.597',-0.135,0.105
'6:09.600',-0.160,0.145
'6:09.603',-0.205,0.160
'6:09.606',-0.245,0.175
'6:09.608',-0.255,0.180
'6:09.611',-0.265,0.200
'6:09.614',-0.260,0.210
'6:09.617',-0.265,0.230
'6:09.619',-0.255,0.215
'6:09.622',-0.265,0.205
'6:09.625',-0.290,0.195
'6:09.628',-0.300,0.205
'6:09.631',-0.305,0.200
'6:09.633',-0.290,0.210
'6:09.636',-0.295,0.205
'6:09.639',-0.305,0.195
'6:09.642',-0.330,0.175
'6:09.644',-0.335,0.180
'6:09.647',-0.340,0.200
'6:09.650',-0.335,0.185
'6:09.653',-0.340,0.205
'6:09.656',-0.340,0.190
'6:09.658',-0.355,0.180
'6:09.661',-0.355,0.195
'6:09.664',-0.360,0.190
'6:09.667',-0.350,0.210
'6:09.669',-0.350,0.205
'6:09.672',-0.360,0.185
'6:09.675',-0.370,0.165
'6:09.678',-0.385,0.175
'6:09.681',-0.370,0.180
'6:09.683',-0.360,0.195
'6:09.686',-0.350,0.185
'6:09.689',-0.355,0.180
'6:09.692',-0.370,0.180
'6:09.694',-0.390,0.190
'6:09.697',-0.385,0.200
'6:09.700',-0.395,0.220
'6:09.703',-0.390,0.215
'6:09.706',-0.385,0.215
'6:09.708',-0.405,0.195
'6:09.711',-0.425,0.210
'6:09.714',-0.410,0.220
'6:09.717',-0.400,0.230
'6:09.719',-0.395,0.225
'6:09.722',-0.385,0.215
'6:09.725',-0.400,0.205
'6:09.728',-0.420,0.200
'6:09.731',-0.405,0.210
'6:09.733',-0.390,0.225
'6:09.736',-0.380,0.225
'6:09.739',-0.380,0.215
'6:09.742',-0.410,0.205
'6:09.744',-0.385,0.210
'6:09.747',-0.385,0.225
'6:09.750',-0.370,0.255
'6:09.753',-0.360,0.260
'6:09.756',-0.360,0.235
'6:09.758',-0.375,0.225
'6:09.761',-0.365,0.240
'6:09.764',-0.345,0.245
'6:09.767',-0.310,0.250
'6:09.769',-0.295,0.245
'6:09.772',-0.310,0.235
'6:09.775',-0.305,0.210
'6:09.778',-0.305,0.215
'6:09.781',-0.300,0.205
'6:09.783',-0.300,0.210
'6:09.786',-0.300,0.200
'6:09.789',-0.285,0.185
'6:09.792',-0.290,0.175
'6:09.794',-0.290,0.170
'6:09.797',-0.285,0.165
'6:09.800',-0.270,0.175
'6:09.803',-0.265,0.165
'6:09.806',-0.270,0.150
'6:09.808',-0.270,0.140
'6:09.811',-0.280,0.145
'6:09.814',-0.260,0.150
'6:09.817',-0.245,0.170
'6:09.819',-0.230,0.165
'6:09.822',-0.230,0.150
'6:09.825',-0.220,0.145
'6:09.828',-0.235,0.155
'6:09.831',-0.250,0.165
'6:09.833',-0.215,0.180
'6:09.836',-0.205,0.195
'6:09.839',-0.200,0.170
'6:09.842',-0.220,0.170
'6:09.844',-0.215,0.180
'6:09.847',-0.205,0.190
'6:09.850',-0.205,0.195
'6:09.853',-0.215,0.190
'6:09.856',-0.215,0.180
'6:09.858',-0.225,0.180
'6:09.861',-0.220,0.180
'6:09.864',-0.220,0.195
'6:09.867',-0.210,0.210
'6:09.869',-0.205,0.210
'6:09.872',-0.215,0.195
'6:09.875',-0.210,0.200
'6:09.878',-0.210,0.200
'6:09.881',-0.195,0.205
'6:09.883',-0.200,0.220
'6:09.886',-0.200,0.220
'6:09.889',-0.215,0.210
'6:09.892',-0.215,0.220
'6:09.894',-0.215,0.210
'6:09.897',-0.205,0.230
'6:09.900',-0.180,0.235
'6:09.903',-0.170,0.230
'6:09.906',-0.185,0.220
'6:09.908',-0.205,0.215
'6:09.911',-0.200,0.245
'6:09.914',-0.190,0.250
'6:09.917',-0.185,0.250
'6:09.919',-0.170,0.250
'6:09.922',-0.180,0.240
'6:09.925',-0.180,0.230
'6:09.928',-0.185,0.220
'6:09.931',-0.170,0.230
'6:09.933',-0.165,0.240
'6:09.936',-0.160,0.225
'6:09.939',-0.160,0.210
'6:09.942',-0.175,0.195
'6:09.944',-0.180,0.195
'6:09.947',-0.170,0.210
'6:09.950',-0.170,0.215
'6:09.953',-0.170,0.225
'6:09.956',-0.175,0.205
'6:09.958',-0.190,0.195
'6:09.961',-0.190,0.185
'6:09.964',-0.195,0.200
'6:09.967',-0.190,0.220
'6:09.969',-0.175,0.220
'6:09.972',-0.185,0.215
'6:09.975',-0.185,0.195
'6:09.978',-0.200,0.215
'6:09.981',-0.195,0.225
'6:09.983',-0.185,0.240
'6:09.986',-0.190,0.225
'6:09.989',-0.195,0.210
'6:09.992',-0.190,0.205
'6:09.994',-0.210,0.205
'6:09.997',-0.210,0.215
'6:10.000',-0.210,0.210
'6:10.003',-0.210,0.195
'6:10.006',-0.205,0.165
'6:10.008',-0.215,0.145
'6:10.011',-0.225,0.150
'6:10.014',-0.215,0.160
'6:10.017',-0.215,0.185
'6:10.019',-0.205,0.185
'6:10.022',-0.225,0.190
'6:10.025',-0.205,0.175
'6:10.028',-0.210,0.190
'6:10.031',-0.200,0.195
'6:10.033',-0.190,0.200
'6:10.036',-0.190,0.205
'6:10.039',-0.205,0.210
'6:10.042',-0.210,0.195
'6:10.044',-0.220,0.205
'6:10.047',-0.200,0.215
'6:10.050',-0.175,0.220
'6:10.053',-0.175,0.210
'6:10.056',-0.185,0.205
'6:10.058',-0.185,0.190
'6:10.061',-0.180,0.205
'6:10.064',-0.170,0.210
'6:10.067',-0.165,0.215
'6:10.069',-0.180,0.225
'6:10.072',-0.155,0.210
'6:10.075',-0.175,0.200
'6:10.078',-0.170,0.205
'6:10.081',-0.160,0.215
'6:10.083',-0.155,0.215
'6:10.086',-0.140,0.205
'6:10.089',-0.155,0.200
'6:10.092',-0.180,0.185
'6:10.094',-0.170,0.190
'6:10.097',-0.160,0.200
'6:10.100',-0.165,0.220
'6:10.103',-0.160,0.205
'6:10.106',-0.175,0.185
'6:10.108',-0.170,0.170
'6:10.111',-0.175,0.155
'6:10.114',-0.185,0.155
'6:10.117',-0.175,0.160
'6:10.119',-0.170,0.160
'6:10.122',-0.190,0.150
'6:10.125',-0.195,0.135
'6:10.128',-0.195,0.135
'6:10.131',-0.180,0.150
'6:10.133',-0.175,0.155
'6:10.136',-0.165,0.145
'6:10.139',-0.180,0.150
'6:10.142',-0.185,0.145
'6:10.144',-0.200,0.145
'6:10.147',-0.185,0.155
'6:10.150',-0.175,0.175
'6:10.153',-0.175,0.180
'6:10.156',-0.185,0.165
'6:10.158',-0.210,0.155
'6:10.161',-0.220,0.160
'6:10.164',-0.200,0.170
'6:10.167',-0.190,0.190
'6:10.169',-0.190,0.195
'6:10.172',-0.195,0.195
'6:10.175',-0.205,0.190
'6:10.178',-0.210,0.200
'6:10.181',-0.190,0.210
'6:10.183',-0.195,0.210
'6:10.186',-0.180,0.220
'6:10.189',-0.195,0.210
'6:10.192',-0.200,0.195
'6:10.194',-0.205,0.195
'6:10.197',-0.190,0.210
'6:10.200',-0.175,0.220
'6:10.203',-0.180,0.210
'6:10.206',-0.185,0.210
'6:10.208',-0.195,0.195
'6:10.211',-0.200,0.220
'6:10.214',-0.190,0.230
'6:10.217',-0.170,0.245
'6:10.219',-0.170,0.240
'6:10.222',-0.170,0.225
'6:10.225',-0.175,0.215
'6:10.228',-0.160,0.215
'6:10.231',-0.155,0.220
'6:10.233',-0.155,0.215
'6:10.236',-0.150,0.220
'6:10.239',-0.145,0.195
'6:10.242',-0.145,0.165
'6:10.244',-0.155,0.155
'6:10.247',-0.170,0.155
'6:10.250',-0.150,0.165
'6:10.253',-0.140,0.160
'6:10.256',-0.160,0.155
'6:10.258',-0.155,0.135
'6:10.261',-0.165,0.130
'6:10.264',-0.175,0.140
'6:10.267',-0.150,0.150
'6:10.269',-0.150,0.145
'6:10.272',-0.165,0.130
'6:10.275',-0.170,0.135
'6:10.278',-0.175,0.125
'6:10.281',-0.165,0.140
'6:10.283',-0.165,0.145
'6:10.286',-0.165,0.140
'6:10.289',-0.175,0.130
'6:10.292',-0.175,0.115
'6:10.294',-0.180,0.120
'6:10.297',-0.170,0.155
'6:10.300',-0.175,0.165
'6:10.303',-0.180,0.170
'6:10.306',-0.175,0.165
'6:10.308',-0.195,0.155
'6:10.311',-0.200,0.165
'6:10.314',-0.185,0.165
'6:10.317',-0.180,0.200
'6:10.319',-0.185,0.200
'6:10.322',-0.190,0.200
'6:10.325',-0.190,0.190
'6:10.328',-0.200,0.200
'6:10.331',-0.180,0.205
'6:10.333',-0.160,0.215
'6:10.336',-0.160,0.225
'6:10.339',-0.170,0.205
'6:10.342',-0.185,0.185
'6:10.344',-0.180,0.175
'6:10.347',-0.155,0.180
'6:10.350',-0.100,0.170
'6:10.353',-0.020,0.150
'6:10.356',0.075,0.105
'6:10.358',0.175,0.075
'6:10.361',0.300,0.050
'6:10.364',0.420,0.035
'6:10.367',0.535,0.015
'6:10.369',0.660,-0.005
'6:10.372',0.810,-0.030
'6:10.375',0.930,-0.110
'6:10.378',1.010,-0.170
'6:10.381',1.015,-0.205
'6:10.383',1.010,-0.215
'6:10.386',0.960,-0.205
'6:10.389',0.870,-0.190
'6:10.392',0.720,-0.125
'6:10.394',0.515,-0.075
'6:10.397',0.295,-0.015
'6:10.400',0.080,0.030
'6:10.403',-0.030,0.055
'6:10.406',-0.070,0.060
'6:10.408',-0.130,0.070
'6:10.411',-0.170,0.095
'6:10.414',-0.220,0.125
'6:10.417',-0.220,0.140
'6:10.419',-0.230,0.150
'6:10.422',-0.250,0.130
'6:10.425',-0.265,0.115
'6:10.428',-0.280,0.135
'6:10.431',-0.290,0.140
'6:10.433',-0.280,0.165
'6:10.436',-0.285,0.175
'6:10.439',-0.295,0.165
'6:10.442',-0.320,0.155
'6:10.444',-0.335,0.165
'6:10.447',-0.320,0.170
'6:10.450',-0.315,0.190
'6:10.453',-0.315,0.180
'6:10.456',-0.335,0.185
'6:10.458',-0.355,0.170
'6:10.461',-0.345,0.170
'6:10.464',-0.350,0.170
'6:10.467',-0.350,0.185
'6:10.469',-0.345,0.175
'6:10.472',-0.340,0.175
'6:10.475',-0.350,0.165
'6:10.478',-0.370,0.170
'6:10.481',-0.355,0.175
'6:10.483',-0.335,0.195
'6:10.486',-0.320,0.185
'6:10.489',-0.345,0.180
'6:10.492',-0.335,0.175
'6:10.494',-0.350,0.180
'6:10.497',-0.350,0.205
'6:10.500',-0.340,0.205
'6:10.503',-0.340,0.205
'6:10.506',-0.345,0.185
'6:10.508',-0.355,0.170
'6:10.511',-0.365,0.175
'6:10.514',-0.360,0.190
'6:10.517',-0.345,0.205
'6:10.519',-0.345,0.205
'6:10.522',-0.350,0.215
'6:10.525',-0.345,0.185
'6:10.528',-0.355,0.200
'6:10.531',-0.340,0.195
'6:10.533',-0.320,0.210
'6:10.536',-0.315,0.210
'6:10.539',-0.335,0.190
'6:10.542',-0.335,0.185
'6:10.544',-0.335,0.180
'6:10.547',-0.335,0.190
'6:10.550',-0.325,0.200
'6:10.553',-0.320,0.205
'6:10.556',-0.335,0.190
'6:10.558',-0.340,0.170
'6:10.561',-0.355,0.170
'6:10.564',-0.345,0.180
'6:10.567',-0.335,0.185
'6:10.569',-0.325,0.175
'6:10.572',-0.325,0.165
'6:10.575',-0.335,0.130
'6:10.578',-0.340,0.135
'6:10.581',-0.320,0.135
'6:10.583',-0.310,0.130
'6:10.586',-0.310,0.130
'6:10.589',-0.305,0.110
'6:10.592',-0.320,0.105
'6:10.594',-0.310,0.110
'6:10.597',-0.305,0.135
'6:10.600',-0.285,0.145
'6:10.603',-0.280,0.135
'6:10.606',-0.275,0.125
'6:10.608',-0.295,0.115
'6:10.611',-0.295,0.105
'6:10.614',-0.285,0.140
'6:10.617',-0.280,0.150
'6:10.619',-0.260,0.155
'6:10.622',-0.260,0.145
'6:10.625',-0.260,0.150
'6:10.628',-0.260,0.145
'6:10.631',-0.245,0.160
'6:10.633',-0.220,0.190
'6:10.636',-0.205,0.195
'6:10.639',-0.205,0.195
'6:10.642',-0.205,0.180
'6:10.644',-0.215,0.190
'6:10.647',-0.195,0.205
'6:10.650',-0.200,0.220
'6:10.653',-0.175,0.220
'6:10.656',-0.180,0.195
'6:10.658',-0.185,0.180
'6:10.661',-0.175,0.165
'6:10.664',-0.175,0.185
'6:10.667',-0.165,0.190
'6:10.669',-0.160,0.190
'6:10.672',-0.160,0.190
'6:10.675',-0.170,0.160
'6:10.678',-0.170,0.180
'6:10.681',-0.160,0.175
'6:10.683',-0.150,0.185
'6:10.686',-0.145,0.190
'6:10.689',-0.145,0.165
'6:10.692',-0.165,0.160
'6:10.694',-0.175,0.160
'6:10.697',-0.180,0.150
'6:10.700',-0.160,0.155
'6:10.703',-0.150,0.145
'6:10.706',-0.170,0.120
'6:10.708',-0.175,0.105
'6:10.711',-0.185,0.110
'6:10.714',-0.185,0.115
'6:10.717',-0.175,0.125
'6:10.719',-0.180,0.115
'6:10.722',-0.190,0.105
'6:10.725',-0.200,0.095
'6:10.728',-0.205,0.095
'6:10.731',-0.200,0.120
'6:10.733',-0.185,0.110
'6:10.736',-0.185,0.110
'6:10.739',-0.180,0.095
'6:10.742',-0.205,0.105
'6:10.744',-0.215,0.120
'6:10.747',-0.205,0.135
'6:10.750',-0.200,0.155
'6:10.753',-0.185,0.155
'6:10.756',-0.195,0.140
'6:10.758',-0.205,0.150
'6:10.761',-0.210,0.160
'6:10.764',-0.215,0.180
'6:10.767',-0.210,0.190
'6:10.769',-0.210,0.200
'6:10.772',-0.220,0.190
'6:10.775',-0.210,0.195
'6:10.778',-0.215,0.200
'6:10.781',-0.230,0.205
'6:10.783',-0.210,0.210
'6:10.786',-0.200,0.215
'6:10.789',-0.200,0.190
'6:10.792',-0.210,0.195
'6:10.794',-0.200,0.190
'6:10.797',-0.190,0.200
'6:10.800',-0.185,0.210
'6:10.803',-0.185,0.205
'6:10.806',-0.185,0.185
'6:10.808',-0.205,0.170
'6:10.811',-0.215,0.165
'6:10.814',-0.200,0.170
'6:10.817',-0.180,0.180
'6:10.819',-0.170,0.175
'6:10.822',-0.180,0.160
'6:10.825',-0.180,0.165
'6:10.828',-0.185,0.165
'6:10.831',-0.185,0.190
'6:10.833',-0.155,0.190
'6:10.836',-0.145,0.190
'6:10.839',-0.160,0.165
'6:10.842',-0.170,0.155
'6:10.844',-0.185,0.145
'6:10.847',-0.175,0.145
'6:10.850',-0.165,0.145
'6:10.853',-0.145,0.135
'6:10.856',-0.160,0.120
'6:10.858',-0.175,0.085
'6:10.861',-0.180,0.095
'6:10.864',-0.180,0.115
'6:10.867',-0.185,0.120
'6:10.869',-0.195,0.130
'6:10.872',-0.185,0.115
'6:10.875',-0.195,0.110
'6:10.878',-0.200,0.100
'6:10.881',-0.200,0.125
'6:10.883',-0.190,0.145
'6:10.886',-0.190,0.140
'6:10.889',-0.200,0.125
'6:10.892',-0.210,0.105
'6:10.894',-0.210,0.100
'6:10.897',-0.200,0.110
'6:10.900',-0.190,0.135
'6:10.903',-0.180,0.130
'6:10.906',-0.185,0.120
'6:10.908',-0.195,0.105
'6:10.911',-0.210,0.105
'6:10.914',-0.210,0.130
'6:10.917',-0.190,0.155
'6:10.919',-0.200,0.160
'6:10.922',-0.210,0.165
'6:10.925',-0.220,0.150
'6:10.928',-0.220,0.155
'6:10.931',-0.225,0.165
'6:10.933',-0.205,0.185
'6:10.936',-0.205,0.170
'6:10.939',-0.205,0.155
'6:10.942',-0.205,0.140
'6:10.944',-0.215,0.135
'6:10.947',-0.210,0.160
'6:10.950',-0.195,0.150
'6:10.953',-0.190,0.145
'6:10.956',-0.195,0.130
'6:10.958',-0.200,0.130
'6:10.961',-0.205,0.120
'6:10.964',-0.195,0.125
'6:10.967',-0.185,0.140
'6:10.969',-0.175,0.140
'6:10.972',-0.190,0.140
'6:10.975',-0.185,0.115
'6:10.978',-0.195,0.110
'6:10.981',-0.195,0.110
'6:10.983',-0.185,0.125
'6:10.986',-0.185,0.125
'6:10.989',-0.190,0.105
'6:10.992',-0.200,0.090
'6:10.994',-0.195,0.105
'6:10.997',-0.190,0.120
'6:11.000',-0.190,0.125
'6:11.003',-0.170,0.115
'6:11.006',-0.175,0.100
'6:11.008',-0.180,0.095
'6:11.011',-0.190,0.090
'6:11.014',-0.185,0.115
'6:11.017',-0.185,0.125
'6:11.019',-0.185,0.120
'6:11.022',-0.190,0.100
'6:11.025',-0.200,0.090
'6:11.028',-0.190,0.090
'6:11.031',-0.195,0.100
'6:11.033',-0.175,0.105
'6:11.036',-0.180,0.105
'6:11.039',-0.180,0.090
'6:11.042',-0.195,0.080
'6:11.044',-0.205,0.095
'6:11.047',-0.200,0.110
'6:11.050',-0.200,0.125
'6:11.053',-0.200,0.120
'6:11.056',-0.205,0.115
'6:11.058',-0.220,0.110
'6:11.061',-0.230,0.115
'6:11.064',-0.210,0.135
'6:11.067',-0.205,0.140
'6:11.069',-0.205,0.150
'6:11.072',-0.225,0.135
'6:11.075',-0.220,0.120
'6:11.078',-0.215,0.135
'6:11.081',-0.205,0.145
'6:11.083',-0.210,0.150
'6:11.086',-0.200,0.145
'6:11.089',-0.210,0.145
'6:11.092',-0.225,0.125
'6:11.094',-0.225,0.110
'6:11.097',-0.215,0.105
'6:11.100',-0.200,0.100
'6:11.103',-0.215,0.105
'6:11.106',-0.215,0.095
'6:11.108',-0.205,0.080
'6:11.111',-0.205,0.090
'6:11.114',-0.205,0.095
'6:11.117',-0.190,0.120
'6:11.119',-0.175,0.115
'6:11.122',-0.165,0.100
'6:11.125',-0.180,0.095
'6:11.128',-0.180,0.095
'6:11.131',-0.160,0.120
'6:11.133',-0.150,0.125
'6:11.136',-0.155,0.120
'6:11.139',-0.145,0.115
'6:11.142',-0.160,0.095
'6:11.144',-0.155,0.110
'6:11.147',-0.160,0.110
'6:11.150',-0.150,0.105
'6:11.153',-0.150,0.105
'6:11.156',-0.145,0.090
'6:11.158',-0.160,0.090
'6:11.161',-0.170,0.095
'6:11.164',-0.170,0.115
'6:11.167',-0.180,0.110
'6:11.169',-0.175,0.105
'6:11.172',-0.125,0.075
'6:11.175',-0.065,0.035
'6:11.178',0.065,-0.005
'6:11.181',0.200,-0.015
'6:11.183',0.320,-0.040
'6:11.186',0.425,-0.085
'6:11.189',0.525,-0.130
'6:11.192',0.645,-0.135
'6:11.194',0.750,-0.160
'6:11.197',0.850,-0.185
'6:11.200',0.870,-0.210
'6:11.203',0.855,-0.230
'6:11.206',0.795,-0.235
'6:11.208',0.740,-0.225
'6:11.211',0.630,-0.175
'6:11.214',0.475,-0.095
'6:11.217',0.235,-0.035
'6:11.219',0.025,0.005
'6:11.222',-0.105,0.025
'6:11.225',-0.175,0.030
'6:11.228',-0.200,0.060
'6:11.231',-0.235,0.095
'6:11.233',-0.255,0.110
'6:11.236',-0.285,0.105
'6:11.239',-0.280,0.090
'6:11.242',-0.280,0.080
'6:11.244',-0.300,0.090
'6:11.247',-0.305,0.115
'6:11.250',-0.305,0.125
'6:11.253',-0.295,0.115
'6:11.256',-0.310,0.105
'6:11.258',-0.325,0.115
'6:11.261',-0.325,0.120
'6:11.264',-0.315,0.125
'6:11.267',-0.305,0.140
'6:11.269',-0.305,0.140
'6:11.272',-0.310,0.130
'6:11.275',-0.330,0.120
'6:11.278',-0.350,0.115
'6:11.281',-0.350,0.130
'6:11.283',-0.335,0.130
'6:11.286',-0.330,0.115
'6:11.289',-0.330,0.110
'6:11.292',-0.350,0.085
'6:11.294',-0.345,0.085
'6:11.297',-0.360,0.085
'6:11.300',-0.350,0.080
'6:11.303',-0.355,0.075
'6:11.306',-0.355,0.085
'6:11.308',-0.370,0.060
'6:11.311',-0.380,0.055
'6:11.314',-0.385,0.070
'6:11.317',-0.365,0.080
'6:11.319',-0.370,0.080
'6:11.322',-0.385,0.070
'6:11.325',-0.400,0.070
'6:11.328',-0.395,0.075
'6:11.331',-0.390,0.085
'6:11.333',-0.375,0.110
'6:11.336',-0.375,0.105
'6:11.339',-0.375,0.105
'6:11.342',-0.390,0.100
'6:11.344',-0.400,0.110
'6:11.347',-0.390,0.125
'6:11.350',-0.380,0.140
'6:11.353',-0.385,0.140
'6:11.356',-0.380,0.130
'6:11.358',-0.390,0.115
'6:11.361',-0.380,0.130
'6:11.364',-0.370,0.130
'6:11.367',-0.370,0.140
'6:11.369',-0.355,0.140
'6:11.372',-0.365,0.120
'6:11.375',-0.375,0.120
'6:11.378',-0.360,0.120
'6:11.381',-0.350,0.115
'6:11.383',-0.335,0.115
'6:11.386',-0.330,0.115
'6:11.389',-0.335,0.105
'6:11.392',-0.345,0.115
'6:11.394',-0.345,0.110
'6:11.397',-0.325,0.130
'6:11.400',-0.305,0.125
'6:11.403',-0.295,0.125
'6:11.406',-0.295,0.105
'6:11.408',-0.310,0.080
'6:11.411',-0.300,0.065
'6:11.414',-0.305,0.075
'6:11.417',-0.290,0.080
'6:11.419',-0.285,0.075
'6:11.422',-0.275,0.065
'6:11.425',-0.285,0.055
'6:11.428',-0.270,0.055
'6:11.431',-0.280,0.060
'6:11.433',-0.250,0.065
'6:11.436',-0.265,0.080
'6:11.439',-0.260,0.070
'6:11.442',-0.255,0.060
'6:11.444',-0.265,0.060
'6:11.447',-0.245,0.065
'6:11.450',-0.230,0.075
'6:11.453',-0.215,0.065
'6:11.456',-0.220,0.075
'6:11.458',-0.230,0.065
'6:11.461',-0.245,0.070
'6:11.464',-0.220,0.075
'6:11.467',-0.210,0.100
'6:11.469',-0.190,0.090
'6:11.472',-0.200,0.090
'6:11.475',-0.215,0.070
'6:11.478',-0.220,0.075
'6:11.481',-0.220,0.085
'6:11.483',-0.215,0.110
'6:11.486',-0.220,0.115
'6:11.489',-0.225,0.110
'6:11.492',-0.235,0.110
'6:11.494',-0.230,0.110
'6:11.497',-0.245,0.125
'6:11.500',-0.215,0.140
'6:11.503',-0.205,0.140
'6:11.506',-0.210,0.140
'6:11.508',-0.230,0.115
'6:11.511',-0.245,0.110
'6:11.514',-0.225,0.115
'6:11.517',-0.215,0.125
'6:11.519',-0.215,0.115
'6:11.522',-0.220,0.100
'6:11.525',-0.230,0.085
'6:11.528',-0.220,0.085
'6:11.531',-0.220,0.085
'6:11.533',-0.210,0.110
'6:11.536',-0.205,0.100
'6:11.539',-0.215,0.095
'6:11.542',-0.225,0.085
'6:11.544',-0.225,0.080
'6:11.547',-0.205,0.095
'6:11.550',-0.200,0.100
'6:11.553',-0.200,0.100
'6:11.556',-0.190,0.090
'6:11.558',-0.205,0.080
'6:11.561',-0.210,0.080
'6:11.564',-0.210,0.090
'6:11.567',-0.205,0.095
'6:11.569',-0.200,0.100
'6:11.572',-0.195,0.090
'6:11.575',-0.215,0.065
'6:11.578',-0.220,0.055
'6:11.581',-0.230,0.075
'6:11.583',-0.205,0.070
'6:11.586',-0.195,0.045
'6:11.589',-0.210,0.030
'6:11.592',-0.220,0.015
'6:11.594',-0.220,0.015
'6:11.597',-0.220,0.015
'6:11.600',-0.210,0.025
'6:11.603',-0.195,0.025
'6:11.606',-0.210,0.020
'6:11.608',-0.205,0.015
'6:11.611',-0.220,0.020
'6:11.614',-0.220,0.040
'6:11.617',-0.220,0.050
'6:11.619',-0.210,0.045
'6:11.622',-0.215,0.050
'6:11.625',-0.235,0.055
'6:11.628',-0.235,0.060
'6:11.631',-0.240,0.080
'6:11.633',-0.230,0.105
'6:11.636',-0.220,0.115
'6:11.639',-0.230,0.110
'6:11.642',-0.225,0.110
'6:11.644',-0.245,0.110
'6:11.647',-0.240,0.115
'6:11.650',-0.240,0.120
'6:11.653',-0.220,0.135
'6:11.656',-0.225,0.110
'6:11.658',-0.225,0.095
'6:11.661',-0.225,0.100
'6:11.664',-0.220,0.100
'6:11.667',-0.205,0.095
'6:11.669',-0.205,0.095
'6:11.672',-0.215,0.095
'6:11.675',-0.225,0.095
'6:11.678',-0.220,0.085
'6:11.681',-0.220,0.105
'6:11.683',-0.200,0.110
'6:11.686',-0.190,0.105
'6:11.689',-0.190,0.115
'6:11.692',-0.200,0.100
'6:11.694',-0.190,0.085
'6:11.697',-0.190,0.105
'6:11.700',-0.180,0.110
'6:11.703',-0.180,0.110
'6:11.706',-0.185,0.090
'6:11.708',-0.200,0.070
'6:11.711',-0.200,0.065
'6:11.714',-0.200,0.080
'6:11.717',-0.190,0.095
'6:11.719',-0.185,0.095
'6:11.722',-0.190,0.080
'6:11.725',-0.210,0.060
'6:11.728',-0.240,0.055
'6:11.731',-0.235,0.070
'6:11.733',-0.225,0.080
'6:11.736',-0.225,0.040
'6:11.739',-0.225,0.020
'6:11.742',-0.225,-0.010
'6:11.744',-0.230,-0.025
'6:11.747',-0.225,-0.015
'6:11.750',-0.200,-0.005
'6:11.753',-0.215,-0.005
'6:11.756',-0.220,0.000
'6:11.758',-0.235,-0.025
'6:11.761',-0.235,-0.010
'6:11.764',-0.225,0.010
'6:11.767',-0.220,0.035
'6:11.769',-0.230,0.025
'6:11.772',-0.230,0.025
'6:11.775',-0.245,0.030
'6:11.778',-0.250,0.020
'6:11.781',-0.230,0.045
'6:11.783',-0.215,0.060
'6:11.786',-0.200,0.050
'6:11.789',-0.215,0.050
'6:11.792',-0.220,0.050
'6:11.794',-0.230,0.040
'6:11.797',-0.210,0.060
'6:11.800',-0.195,0.060
'6:11.803',-0.195,0.060
'6:11.806',-0.200,0.040
'6:11.808',-0.215,0.030
'6:11.811',-0.215,0.035
'6:11.814',-0.205,0.065
'6:11.817',-0.205,0.075
'6:11.819',-0.190,0.065
'6:11.822',-0.190,0.070
'6:11.825',-0.200,0.065
'6:11.828',-0.200,0.060
'6:11.831',-0.185,0.065
'6:11.833',-0.170,0.070
'6:11.836',-0.170,0.075
'6:11.839',-0.170,0.055
'6:11.842',-0.195,0.050
'6:11.844',-0.190,0.055
'6:11.847',-0.190,0.065
'6:11.850',-0.170,0.080
'6:11.853',-0.175,0.075
'6:11.856',-0.190,0.055
'6:11.858',-0.200,0.060
'6:11.861',-0.210,0.045
'6:11.864',-0.215,0.050
'6:11.867',-0.220,0.035
'6:11.869',-0.200,0.015
'6:11.872',-0.210,-0.025
'6:11.875',-0.200,-0.030
'6:11.878',-0.230,-0.030
'6:11.881',-0.210,-0.020
'6:11.883',-0.195,-0.010
'6:11.886',-0.125,-0.045
'6:11.889',-0.015,-0.075
'6:11.892',0.090,-0.095
'6:11.894',0.235,-0.110
'6:11.897',0.360,-0.145
'6:11.900',0.495,-0.160
'6:11.903',0.630,-0.170
'6:11.906',0.765,-0.195
'6:11.908',0.865,-0.245
'6:11.911',0.945,-0.290
'6:11.914',0.950,-0.300
'6:11.917',0.915,-0.295
'6:11.919',0.835,-0.280
'6:11.922',0.710,-0.230
'6:11.925',0.525,-0.165
'6:11.928',0.275,-0.115
'6:11.931',0.030,-0.065
'6:11.933',-0.085,-0.030
'6:11.936',-0.125,-0.010
'6:11.939',-0.165,0.010
'6:11.942',-0.220,0.005
'6:11.944',-0.255,0.020
'6:11.947',-0.270,0.035
'6:11.950',-0.265,0.065
'6:11.953',-0.270,0.055
'6:11.956',-0.285,0.060
'6:11.958',-0.315,0.065
'6:11.961',-0.330,0.055
'6:11.964',-0.320,0.070
'6:11.967',-0.310,0.090
'6:11.969',-0.315,0.085
'6:11.972',-0.335,0.070
'6:11.975',-0.335,0.055
'6:11.978',-0.350,0.045
'6:11.981',-0.345,0.050
'6:11.983',-0.320,0.050
'6:11.986',-0.325,0.040
'6:11.989',-0.330,0.030
'6:11.992',-0.345,0.020
'6:11.994',-0.350,0.020
'6:11.997',-0.350,0.020
'6:12.000',-0.350,0.025
'6:12.003',-0.350,0.030
'6:12.006',-0.360,0.020
'6:12.008',-0.375,0.005
'6:12.011',-0.395,0.015
'6:12.014',-0.380,0.025
'6:12.017',-0.370,0.030
'6:12.019',-0.370,0.030
'6:12.022',-0.380,0.030
'6:12.025',-0.385,0.030
'6:12.028',-0.390,0.020
'6:12.031',-0.390,0.035
'6:12.033',-0.365,0.070
'6:12.036',-0.365,0.075
'6:12.039',-0.375,0.070
'6:12.042',-0.385,0.070
'6:12.044',-0.400,0.065
'6:12.047',-0.395,0.085
'6:12.050',-0.390,0.105
'6:12.053',-0.375,0.115
'6:12.056',-0.385,0.105
'6:12.058',-0.395,0.105
'6:12.061',-0.395,0.100
'6:12.064',-0.390,0.115
'6:12.067',-0.370,0.130
'6:12.069',-0.375,0.110
'6:12.072',-0.380,0.095
'6:12.075',-0.380,0.065
'6:12.078',-0.390,0.060
'6:12.081',-0.380,0.050
'6:12.083',-0.370,0.050
'6:12.086',-0.365,0.020
'6:12.089',-0.365,0.005
'6:12.092',-0.370,0.000
'6:12.094',-0.370,0.000
'6:12.097',-0.350,0.015
'6:12.100',-0.330,0.015
'6:12.103',-0.325,0.030
'6:12.106',-0.320,0.030
'6:12.108',-0.310,0.015
'6:12.111',-0.320,0.010
'6:12.114',-0.315,0.025
'6:12.117',-0.300,0.030
'6:12.119',-0.290,0.035
'6:12.122',-0.275,0.030
'6:12.125',-0.295,0.020
'6:12.128',-0.280,0.030
'6:12.131',-0.270,0.025
'6:12.133',-0.250,0.040
'6:12.136',-0.250,0.030
'6:12.139',-0.255,0.020
'6:12.142',-0.255,0.010
'6:12.144',-0.255,0.010
'6:12.147',-0.245,0.015
'6:12.150',-0.230,0.035
'6:12.153',-0.220,0.030
'6:12.156',-0.235,0.030
'6:12.158',-0.245,0.020
'6:12.161',-0.245,0.030
'6:12.164',-0.225,0.045
'6:12.167',-0.210,0.055
'6:12.169',-0.215,0.070
'6:12.172',-0.225,0.065
'6:12.175',-0.225,0.050
'6:12.178',-0.225,0.070
'6:12.181',-0.220,0.080
'6:12.183',-0.225,0.090
'6:12.186',-0.205,0.080
'6:12.189',-0.225,0.070
'6:12.192',-0.230,0.050
'6:12.194',-0.225,0.045
'6:12.197',-0.225,0.045
'6:12.200',-0.210,0.060
'6:12.203',-0.200,0.040
'6:12.206',-0.200,0.045
'6:12.208',-0.210,0.020
'6:12.211',-0.225,0.030
'6:12.214',-0.225,0.050
'6:12.217',-0.205,0.035
'6:12.219',-0.190,0.030
'6:12.222',-0.200,0.020
'6:12.225',-0.205,0.005
'6:12.228',-0.210,0.015
'6:12.231',-0.200,0.025
'6:12.233',-0.190,0.050
'6:12.236',-0.185,0.050
'6:12.239',-0.185,0.050
'6:12.242',-0.180,0.050
'6:12.244',-0.185,0.060
'6:12.247',-0.180,0.070
'6:12.250',-0.160,0.090
'6:12.253',-0.160,0.070
'6:12.256',-0.170,0.065
'6:12.258',-0.190,0.070
'6:12.261',-0.185,0.075
'6:12.264',-0.180,0.075
'6:12.267',-0.160,0.105
'6:12.269',-0.170,0.100
'6:12.272',-0.185,0.095
'6:12.275',-0.190,0.090
'6:12.278',-0.215,0.090
'6:12.281',-0.205,0.100
'6:12.283',-0.195,0.105
'6:12.286',-0.195,0.090
'6:12.289',-0.210,0.075
'6:12.292',-0.215,0.060
'6:12.294',-0.230,0.055
'6:12.297',-0.215,0.040
'6:12.300',-0.210,0.030
'6:12.303',-0.200,0.000
'6:12.306',-0.205,-0.005
'6:12.308',-0.215,-0.010
'6:12.311',-0.215,-0.025
'6:12.314',-0.205,0.000
'6:12.317',-0.215,0.015
'6:12.319',-0.210,0.000
'6:12.322',-0.210,0.000
'6:12.325',-0.235,-0.010
'6:12.328',-0.255,0.005
'6:12.331',-0.240,0.000
'6:12.333',-0.225,0.020
'6:12.336',-0.220,0.020
'6:12.339',-0.205,0.010
'6:12.342',-0.230,0.015
'6:12.344',-0.230,0.015
'6:12.347',-0.225,0.025
'6:12.350',-0.210,0.040
'6:12.353',-0.195,0.040
'6:12.356',-0.200,0.030
'6:12.358',-0.205,0.020
'6:12.361',-0.220,0.040
'6:12.364',-0.215,0.060
'6:12.367',-0.195,0.065
'6:12.369',-0.180,0.065
'6:12.372',-0.175,0.055
'6:12.375',-0.175,0.050
'6:12.378',-0.185,0.065
'6:12.381',-0.175,0.075
'6:12.383',-0.165,0.085
'6:12.386',-0.170,0.070
'6:12.389',-0.170,0.075
'6:12.392',-0.190,0.060
'6:12.394',-0.195,0.070
'6:12.397',-0.190,0.065
'6:12.400',-0.185,0.075
'6:12.403',-0.170,0.085
'6:12.406',-0.180,0.065
'6:12.408',-0.195,0.040
'6:12.411',-0.195,0.000
'6:12.414',-0.195,-0.005
'6:12.417',-0.180,-0.015
'6:12.419',-0.175,-0.035
'6:12.422',-0.185,-0.055
'6:12.425',-0.185,-0.050
'6:12.428',-0.195,-0.045
'6:12.431',-0.195,-0.030
'6:12.433',-0.205,-0.030
'6:12.436',-0.180,-0.040
'6:12.439',-0.125,-0.075
'6:12.442',-0.040,-0.090
'6:12.444',0.075,-0.115
'6:12.447',0.190,-0.135
'6:12.450',0.305,-0.175
'6:12.453',0.445,-0.200
'6:12.456',0.560,-0.235
'6:12.458',0.680,-0.235
'6:12.461',0.800,-0.230
'6:12.464',0.905,-0.245
'6:12.467',0.970,-0.280
'6:12.469',0.995,-0.315
'6:12.472',0.975,-0.325
'6:12.475',0.915,-0.330
'6:12.478',0.835,-0.315
'6:12.481',0.720,-0.260
'6:12.483',0.580,-0.190
'6:12.486',0.365,-0.135
'6:12.489',0.125,-0.100
'6:12.492',-0.045,-0.070
'6:12.494',-0.125,-0.060
'6:12.497',-0.145,-0.025
'6:12.500',-0.190,0.000
'6:12.503',-0.240,0.035
'6:12.506',-0.260,0.015
'6:12.508',-0.275,0.025
'6:12.511',-0.275,0.030
'6:12.514',-0.275,0.040
'6:12.517',-0.285,0.065
'6:12.519',-0.290,0.080
'6:12.522',-0.310,0.055
'6:12.525',-0.320,0.050
'6:12.528',-0.330,0.040
'6:12.531',-0.335,0.050
'6:12.533',-0.330,0.055
'6:12.536',-0.315,0.060
'6:12.539',-0.335,0.040
'6:12.542',-0.340,0.040
'6:12.544',-0.350,0.025
'6:12.547',-0.355,0.040
'6:12.550',-0.335,0.045
'6:12.553',-0.340,0.035
'6:12.556',-0.345,0.025
'6:12.558',-0.365,0.025
'6:12.561',-0.380,0.015
'6:12.564',-0.390,0.020
'6:12.567',-0.370,0.035
'6:12.569',-0.380,0.010
'6:12.572',-0.385,0.010
'6:12.575',-0.405,0.000
'6:12.578',-0.410,0.010
'6:12.581',-0.405,0.020
'6:12.583',-0.400,0.025
'6:12.586',-0.400,0.020
'6:12.589',-0.410,0.015
'6:12.592',-0.435,0.020
'6:12.594',-0.430,0.030
'6:12.597',-0.425,0.045
'6:12.600',-0.415,0.060
'6:12.603',-0.425,0.050
'6:12.606',-0.425,0.060
'6:12.608',-0.435,0.050
'6:12.611',-0.445,0.055
'6:12.614',-0.440,0.065
'6:12.617',-0.430,0.090
'6:12.619',-0.420,0.090
'6:12.622',-0.430,0.085
'6:12.625',-0.435,0.090
'6:12.628',-0.430,0.085
'6:12.631',-0.420,0.085
'6:12.633',-0.405,0.090
'6:12.636',-0.410,0.080
'6:12.639',-0.420,0.065
'6:12.642',-0.405,0.040
'6:12.644',-0.400,0.035
'6:12.647',-0.400,0.035
'6:12.650',-0.390,0.035
'6:12.653',-0.380,0.020
'6:12.656',-0.380,0.020
'6:12.658',-0.385,0.005
'6:12.661',-0.390,0.005
'6:12.664',-0.375,0.015
'6:12.667',-0.380,0.010
'6:12.669',-0.355,0.005
'6:12.672',-0.360,-0.010
'6:12.675',-0.360,-0.005
'6:12.678',-0.355,-0.010
'6:12.681',-0.340,0.000
'6:12.683',-0.330,0.005
'6:12.686',-0.320,0.000
'6:12.689',-0.320,-0.005
'6:12.692',-0.325,-0.020
'6:12.694',-0.325,-0.005
'6:12.697',-0.315,-0.015
'6:12.700',-0.300,0.005
'6:12.703',-0.280,0.010
'6:12.706',-0.275,0.005
'6:12.708',-0.280,-0.005
'6:12.711',-0.300,0.000
'6:12.714',-0.270,0.010
'6:12.717',-0.260,0.030
'6:12.719',-0.250,0.040
'6:12.722',-0.255,0.015
'6:12.725',-0.270,0.015
'6:12.728',-0.270,0.020
'6:12.731',-0.260,0.015
'6:12.733',-0.225,0.020
'6:12.736',-0.215,0.020
'6:12.739',-0.215,0.010
'6:12.742',-0.230,0.005
'6:12.744',-0.235,0.000
'6:12.747',-0.230,0.005
'6:12.750',-0.230,0.015
'6:12.753',-0.215,0.015
'6:12.756',-0.215,0.005
'6:12.758',-0.225,0.005
'6:12.761',-0.240,0.010
'6:12.764',-0.230,0.015
'6:12.767',-0.220,0.035
'6:12.769',-0.220,0.045
'6:12.772',-0.230,0.035
'6:12.775',-0.240,0.035
'6:12.778',-0.250,0.040
'6:12.781',-0.245,0.050
'6:12.783',-0.235,0.060
'6:12.786',-0.220,0.065
'6:12.789',-0.245,0.050
'6:12.792',-0.240,0.050
'6:12.794',-0.250,0.045
'6:12.797',-0.240,0.045
'6:12.800',-0.220,0.055
'6:12.803',-0.210,0.065
'6:12.806',-0.215,0.055
'6:12.808',-0.240,0.045
'6:12.811',-0.230,0.030
'6:12.814',-0.225,0.035
'6:12.817',-0.220,0.050
'6:12.819',-0.225,0.040
'6:12.822',-0.230,0.025
'6:12.825',-0.235,0.035
'6:12.828',-0.235,0.030
'6:12.831',-0.225,0.035
'6:12.833',-0.210,0.050
'6:12.836',-0.210,0.060
'6:12.839',-0.210,0.040
'6:12.842',-0.210,0.030
'6:12.844',-0.205,0.015
'6:12.847',-0.220,0.040
'6:12.850',-0.195,0.050
'6:12.853',-0.195,0.045
'6:12.856',-0.200,0.040
'6:12.858',-0.205,0.035
'6:12.861',-0.205,0.025
'6:12.864',-0.220,0.030
'6:12.867',-0.200,0.025
'6:12.869',-0.190,0.025
'6:12.872',-0.195,0.005
'6:12.875',-0.210,0.000
'6:12.878',-0.225,-0.005
'6:12.881',-0.225,0.005
'6:12.883',-0.205,0.010
'6:12.886',-0.200,0.010
'6:12.889',-0.205,0.015
'6:12.892',-0.205,-0.005
'6:12.894',-0.205,0.005
'6:12.897',-0.205,0.010
'6:12.900',-0.205,0.020
'6:12.903',-0.195,0.020
'6:12.906',-0.195,0.010
'6:12.908',-0.205,0.005
'6:12.911',-0.210,0.000
'6:12.914',-0.210,0.020
'6:12.917',-0.200,0.020
'6:12.919',-0.195,0.020
'6:12.922',-0.200,0.020
'6:12.925',-0.210,0.010
'6:12.928',-0.220,0.000
'6:12.931',-0.225,0.010
'6:12.933',-0.205,0.030
'6:12.936',-0.205,0.030
'6:12.939',-0.210,0.035
'6:12.942',-0.235,0.025
'6:12.944',-0.240,0.020
'6:12.947',-0.225,0.030
'6:12.950',-0.210,0.045
'6:12.953',-0.205,0.025
'6:12.956',-0.205,0.035
'6:12.958',-0.220,0.010
'6:12.961',-0.225,0.015
'6:12.964',-0.220,0.025
'6:12.967',-0.210,0.040
'6:12.969',-0.205,0.020
'6:12.972',-0.210,0.010
'6:12.975',-0.225,-0.010
'6:12.978',-0.230,-0.020
'6:12.981',-0.215,0.000
'6:12.983',-0.205,0.015
'6:12.986',-0.195,0.005
'6:12.989',-0.215,0.010
'6:12.992',-0.220,-0.010
'6:12.994',-0.225,-0.010
'6:12.997',-0.215,0.005
'6:13.000',-0.205,0.005
'6:13.003',-0.195,0.005
'6:13.006',-0.205,0.000
'6:13.008',-0.210,-0.015
'6:13.011',-0.200,0.000
'6:13.014',-0.205,0.005
'6:13.017',-0.185,0.010
'6:13.019',-0.200,0.025
'6:13.022',-0.190,0.015
'6:13.025',-0.190,0.000
'6:13.028',-0.200,-0.010
'6:13.031',-0.205,0.005
'6:13.033',-0.185,0.020
'6:13.036',-0.190,0.010
'6:13.039',-0.210,-0.005
'6:13.042',-0.210,-0.015
'6:13.044',-0.220,-0.025
'6:13.047',-0.210,-0.020
'6:13.050',-0.215,-0.005
'6:13.053',-0.205,0.000
'6:13.056',-0.220,-0.015
'6:13.058',-0.225,-0.030
'6:13.061',-0.225,-0.030
'6:13.064',-0.225,-0.015
'6:13.067',-0.225,-0.010
'6:13.069',-0.225,0.005
'6:13.072',-0.225,-0.010
'6:13.075',-0.220,-0.020
'6:13.078',-0.230,-0.015
'6:13.081',-0.230,0.005
'6:13.083',-0.220,0.020
'6:13.086',-0.215,0.020
'6:13.089',-0.215,0.020
'6:13.092',-0.225,-0.010
'6:13.094',-0.230,0.000
'6:13.097',-0.235,0.005
'6:13.100',-0.225,0.025
'6:13.103',-0.210,0.020
'6:13.106',-0.210,0.020
'6:13.108',-0.225,0.020
'6:13.111',-0.230,0.025
'6:13.114',-0.225,0.030
'6:13.117',-0.215,0.030
'6:13.119',-0.215,0.035
'6:13.122',-0.200,0.025
'6:13.125',-0.210,0.020
'6:13.128',-0.225,0.015
'6:13.131',-0.230,0.020
'6:13.133',-0.220,0.015
'6:13.136',-0.205,0.015
'6:13.139',-0.210,0.005
'6:13.142',-0.220,-0.005
'6:13.144',-0.215,-0.015
'6:13.147',-0.225,0.000
'6:13.150',-0.205,0.035
'6:13.153',-0.200,0.025
'6:13.156',-0.195,0.020
'6:13.158',-0.210,0.005
'6:13.161',-0.215,0.010
'6:13.164',-0.200,0.025
'6:13.167',-0.190,0.025
'6:13.169',-0.175,0.025
'6:13.172',-0.180,0.025
'6:13.175',-0.180,-0.005
'6:13.178',-0.215,0.000
'6:13.181',-0.190,0.005
'6:13.183',-0.180,0.020
'6:13.186',-0.165,0.015
'6:13.189',-0.175,0.010
'6:13.192',-0.185,-0.010
'6:13.194',-0.180,-0.010
'6:13.197',-0.175,-0.010
'6:13.200',-0.160,0.005
'6:13.203',-0.145,-0.005
'6:13.206',-0.155,-0.015
'6:13.208',-0.160,-0.025
'6:13.211',-0.185,-0.025
'6:13.214',-0.185,-0.020
'6:13.217',-0.170,-0.015
'6:13.219',-0.165,-0.020
'6:13.222',-0.185,-0.035
'6:13.225',-0.180,-0.055
'6:13.228',-0.185,-0.045
'6:13.231',-0.190,-0.030
'6:13.233',-0.180,-0.005
'6:13.236',-0.175,-0.015
'6:13.239',-0.170,-0.030
'6:13.242',-0.140,-0.050
'6:13.244',-0.115,-0.055
'6:13.247',-0.020,-0.070
'6:13.250',0.100,-0.065
'6:13.253',0.195,-0.090
'6:13.256',0.275,-0.100
'6:13.258',0.370,-0.135
'6:13.261',0.430,-0.160
'6:13.264',0.545,-0.150
'6:13.267',0.680,-0.135
'6:13.269',0.795,-0.165
'6:13.272',0.880,-0.230
'6:13.275',0.910,-0.270
'6:13.278',0.940,-0.305
'6:13.281',0.915,-0.295
'6:13.283',0.870,-0.295
'6:13.286',0.815,-0.280
'6:13.289',0.705,-0.255
'6:13.292',0.575,-0.225
'6:13.294',0.395,-0.190
'6:13.297',0.180,-0.160
'6:13.300',0.015,-0.125
'6:13.303',-0.060,-0.105
'6:13.306',-0.105,-0.105
'6:13.308',-0.155,-0.085
'6:13.311',-0.200,-0.085
'6:13.314',-0.230,-0.055
'6:13.317',-0.250,-0.030
'6:13.319',-0.255,-0.035
'6:13.322',-0.265,-0.030
'6:13.325',-0.275,-0.035
'6:13.328',-0.285,-0.035
'6:13.331',-0.285,-0.020
'6:13.333',-0.290,-0.005
'6:13.336',-0.290,0.000
'6:13.339',-0.290,-0.005
'6:13.342',-0.300,-0.015
'6:13.344',-0.310,-0.005
'6:13.347',-0.310,0.015
'6:13.350',-0.300,0.010
'6:13.353',-0.305,0.020
'6:13.356',-0.310,0.010
'6:13.358',-0.325,0.000
'6:13.361',-0.325,-0.005
'6:13.364',-0.330,0.000
'6:13.367',-0.330,0.010
'6:13.369',-0.310,0.015
'6:13.372',-0.310,-0.005
'6:13.375',-0.325,-0.010
'6:13.378',-0.345,-0.005
'6:13.381',-0.340,0.010
'6:13.383',-0.335,0.020
'6:13.386',-0.325,0.010
'6:13.389',-0.340,-0.005
'6:13.392',-0.350,-0.010
'6:13.394',-0.360,0.010
'6:13.397',-0.360,0.005
'6:13.400',-0.360,0.010
'6:13.403',-0.355,0.015
'6:13.406',-0.360,0.020
'6:13.408',-0.375,0.005
'6:13.411',-0.385,0.015
'6:13.414',-0.380,0.040
'6:13.417',-0.370,0.060
'6:13.419',-0.380,0.040
'6:13.422',-0.380,0.040
'6:13.425',-0.390,0.040
'6:13.428',-0.385,0.035
'6:13.431',-0.390,0.045
'6:13.433',-0.375,0.065
'6:13.436',-0.370,0.040
'6:13.439',-0.380,0.020
'6:13.442',-0.400,0.010
'6:13.444',-0.400,0.005
'6:13.447',-0.400,0.005
'6:13.450',-0.395,0.015
'6:13.453',-0.385,0.015
'6:13.456',-0.385,0.020
'6:13.458',-0.400,-0.005
'6:13.461',-0.405,0.000
'6:13.464',-0.400,0.005
'6:13.467',-0.385,0.020
'6:13.469',-0.375,0.025
'6:13.472',-0.355,0.015
'6:13.475',-0.385,0.000
'6:13.478',-0.375,-0.010
'6:13.481',-0.375,0.015
'6:13.483',-0.360,0.020
'6:13.486',-0.345,0.015
'6:13.489',-0.335,0.005
'6:13.492',-0.355,-0.005
'6:13.494',-0.365,-0.005
'6:13.497',-0.345,0.005
'6:13.500',-0.345,0.040
'6:13.503',-0.320,0.025
'6:13.506',-0.315,0.015
'6:13.508',-0.320,0.015
'6:13.511',-0.335,0.025
'6:13.514',-0.325,0.045
'6:13.517',-0.300,0.045
'6:13.519',-0.285,0.045
'6:13.522',-0.275,0.035
'6:13.525',-0.275,0.030
'6:13.528',-0.285,0.020
'6:13.531',-0.280,0.040
'6:13.533',-0.265,0.045
'6:13.536',-0.255,0.050
'6:13.539',-0.250,0.045
'6:13.542',-0.250,0.020
'6:13.544',-0.255,0.010
'6:13.547',-0.255,0.020
'6:13.550',-0.235,0.025
'6:13.553',-0.230,0.015
'6:13.556',-0.225,0.005
'6:13.558',-0.225,-0.010
'6:13.561',-0.230,-0.015
'6:13.564',-0.230,0.000
'6:13.567',-0.205,-0.005
'6:13.569',-0.195,-0.015
'6:13.572',-0.195,-0.025
'6:13.575',-0.205,-0.030
'6:13.578',-0.210,-0.035
'6:13.581',-0.200,-0.025
'6:13.583',-0.190,-0.005
'6:13.586',-0.180,-0.020
'6:13.589',-0.185,-0.035
'6:13.592',-0.180,-0.035
'6:13.594',-0.190,-0.040
'6:13.597',-0.190,-0.030
'6:13.600',-0.185,0.000
'6:13.603',-0.185,-0.015
'6:13.606',-0.180,-0.005
'6:13.608',-0.190,0.000
'6:13.611',-0.205,0.000
'6:13.614',-0.205,0.015
'6:13.617',-0.195,0.030
'6:13.619',-0.190,0.035
'6:13.622',-0.205,0.020
'6:13.625',-0.205,0.025
'6:13.628',-0.205,0.030
'6:13.631',-0.215,0.040
'6:13.633',-0.195,0.040
'6:13.636',-0.180,0.035
'6:13.639',-0.195,0.035
'6:13.642',-0.200,0.030
'6:13.644',-0.220,0.025
'6:13.647',-0.205,0.040
'6:13.650',-0.200,0.040
'6:13.653',-0.190,0.030
'6:13.656',-0.185,0.040
'6:13.658',-0.200,0.025
'6:13.661',-0.200,0.035
'6:13.664',-0.190,0.065
'6:13.667',-0.200,0.075
'6:13.669',-0.185,0.075
'6:13.672',-0.190,0.070
'6:13.675',-0.185,0.075
'6:13.678',-0.185,0.080
'6:13.681',-0.175,0.085
'6:13.683',-0.155,0.105
'6:13.686',-0.140,0.100
'6:13.689',-0.135,0.100
'6:13.692',-0.175,0.065
'6:13.694',-0.170,0.060
'6:13.697',-0.150,0.045
'6:13.700',-0.135,0.045
'6:13.703',-0.120,0.020
'6:13.706',-0.140,0.000
'6:13.708',-0.160,-0.030
'6:13.711',-0.165,-0.040
'6:13.714',-0.165,-0.040
'6:13.717',-0.165,-0.035
'6:13.719',-0.165,-0.035
'6:13.722',-0.165,-0.035
'6:13.725',-0.170,-0.050
'6:13.728',-0.170,-0.055
'6:13.731',-0.170,-0.040
'6:13.733',-0.160,-0.040
'6:13.736',-0.150,-0.030
'6:13.739',-0.150,-0.020
'6:13.742',-0.175,-0.030
'6:13.744',-0.175,-0.030
'6:13.747',-0.185,-0.020
'6:13.750',-0.165,-0.010
'6:13.753',-0.150,0.000
'6:13.756',-0.165,-0.005
'6:13.758',-0.175,-0.010
'6:13.761',-0.180,-0.005
'6:13.764',-0.170,0.005
'6:13.767',-0.170,0.035
'6:13.769',-0.160,0.030
'6:13.772',-0.175,0.035
'6:13.775',-0.180,0.025
'6:13.778',-0.185,0.040
'6:13.781',-0.175,0.040
'6:13.783',-0.170,0.060
'6:13.786',-0.155,0.050
'6:13.789',-0.160,0.050
'6:13.792',-0.180,0.040
'6:13.794',-0.200,0.045
'6:13.797',-0.185,0.035
'6:13.800',-0.185,0.060
'6:13.803',-0.170,0.050
'6:13.806',-0.180,0.025
'6:13.808',-0.190,0.020
'6:13.811',-0.200,0.025
'6:13.814',-0.185,0.050
'6:13.817',-0.180,0.055
'6:13.819',-0.160,0.065
'6:13.822',-0.165,0.050
'6:13.825',-0.180,0.045
'6:13.828',-0.190,0.035
'6:13.831',-0.185,0.055
'6:13.833',-0.180,0.055
'6:13.836',-0.170,0.055
'6:13.839',-0.170,0.050
'6:13.842',-0.170,0.045
'6:13.844',-0.175,0.050
'6:13.847',-0.170,0.050
'6:13.850',-0.160,0.055
'6:13.853',-0.140,0.035
'6:13.856',-0.145,0.020
'6:13.858',-0.155,0.010
'6:13.861',-0.165,-0.005
