'Elapsed time','MLII','V1'
'hh:mm:ss.mmm','mV','mV'
'17:00.000',1.135,-1.860
'17:00.003',1.495,-1.865
'17:00.006',1.715,-1.855
'17:00.008',1.725,-1.810
'17:00.011',1.540,-1.755
'17:00.014',1.200,-1.705
'17:00.017',0.785,-1.630
'17:00.019',0.310,-1.540
'17:00.022',-0.150,-1.370
'17:00.025',-0.585,-1.135
'17:00.028',-0.955,-0.885
'17:00.031',-1.300,-0.675
'17:00.033',-1.570,-0.535
'17:00.036',-1.745,-0.460
'17:00.039',-1.790,-0.380
'17:00.042',-1.760,-0.330
'17:00.044',-1.650,-0.290
'17:00.047',-1.505,-0.245
'17:00.050',-1.400,-0.205
'17:00.053',-1.295,-0.165
'17:00.056',-1.255,-0.150
'17:00.058',-1.240,-0.120
'17:00.061',-1.260,-0.100
'17:00.064',-1.290,-0.115
'17:00.067',-1.315,-0.110
'17:00.069',-1.335,-0.105
'17:00.072',-1.340,-0.120
'17:00.075',-1.340,-0.095
'17:00.078',-1.360,-0.100
'17:00.081',-1.360,-0.085
'17:00.083',-1.360,-0.065
'17:00.086',-1.365,-0.045
'17:00.089',-1.360,-0.040
'17:00.092',-1.370,-0.035
'17:00.094',-1.375,-0.020
'17:00.097',-1.390,-0.010
'17:00.100',-1.410,-0.005
'17:00.103',-1.415,-0.005
'17:00.106',-1.425,0.015
'17:00.108',-1.435,0.015
'17:00.111',-1.430,0.030
'17:00.114',-1.430,0.025
'17:00.117',-1.420,0.055
'17:00.119',-1.390,0.065
'17:00.122',-1.390,0.075
'17:00.125',-1.380,0.085
'17:00.128',-1.385,0.090
'17:00.131',-1.390,0.085
'17:00.133',-1.400,0.095
'17:00.136',-1.400,0.095
'17:00.139',-1.395,0.110
'17:00.142',-1.375,0.125
'17:00.144',-1.355,0.125
'17:00.147',-1.340,0.165
'17:00.150',-1.325,0.185
'17:00.153',-1.315,0.210
'17:00.156',-1.305,0.215
'17:00.158',-1.280,0.215
'17:00.161',-1.260,0.235
'17:00.164',-1.235,0.235
'17:00.167',-1.220,0.245
'17:00.169',-1.205,0.250
'17:00.172',-1.190,0.255
'17:00.175',-1.180,0.280
'17:00.178',-1.150,0.285
'17:00.181',-1.110,0.300
'17:00.183',-1.075,0.315
'17:00.186',-1.035,0.310
'17:00.189',-1.000,0.320
'17:00.192',-0.965,0.335
'17:00.194',-0.930,0.330
'17:00.197',-0.915,0.340
'17:00.200',-0.905,0.350
'17:00.203',-0.875,0.330
'17:00.206',-0.840,0.335
'17:00.208',-0.805,0.325
'17:00.211',-0.755,0.335
'17:00.214',-0.700,0.340
'17:00.217',-0.670,0.330
'17:00.219',-0.635,0.345
'17:00.222',-0.600,0.355
'17:00.225',-0.565,0.350
'17:00.228',-0.530,0.325
'17:00.231',-0.495,0.315
'17:00.233',-0.450,0.285
'17:00.236',-0.420,0.275
'17:00.239',-0.395,0.260
'17:00.242',-0.375,0.260
'17:00.244',-0.355,0.250
'17:00.247',-0.345,0.255
'17:00.250',-0.315,0.245
'17:00.253',-0.295,0.240
'17:00.256',-0.250,0.215
'17:00.258',-0.215,0.190
'17:00.261',-0.185,0.170
'17:00.264',-0.160,0.155
'17:00.267',-0.150,0.120
'17:00.269',-0.165,0.110
'17:00.272',-0.165,0.105
'17:00.275',-0.170,0.110
'17:00.278',-0.165,0.100
'17:00.281',-0.160,0.100
'17:00.283',-0.150,0.085
'17:00.286',-0.150,0.080
'17:00.289',-0.150,0.065
'17:00.292',-0.170,0.045
'17:00.294',-0.200,0.040
'17:00.297',-0.215,0.030
'17:00.300',-0.245,0.035
'17:00.303',-0.275,0.035
'17:00.306',-0.290,0.035
'17:00.308',-0.310,0.015
'17:00.311',-0.330,0.015
'17:00.314',-0.345,0.015
'17:00.317',-0.370,0.025
'17:00.319',-0.400,0.030
'17:00.322',-0.440,0.055
'17:00.325',-0.465,0.070
'17:00.328',-0.480,0.085
'17:00.331',-0.510,0.095
'17:00.333',-0.530,0.100
'17:00.336',-0.565,0.090
'17:00.339',-0.615,0.065
'17:00.342',-0.645,0.070
'17:00.344',-0.685,0.080
'17:00.347',-0.710,0.100
'17:00.350',-0.720,0.135
'17:00.353',-0.745,0.160
'17:00.356',-0.760,0.175
'17:00.358',-0.770,0.175
'17:00.361',-0.775,0.175
'17:00.364',-0.810,0.175
'17:00.367',-0.825,0.165
'17:00.369',-0.835,0.175
'17:00.372',-0.850,0.185
'17:00.375',-0.845,0.200
'17:00.378',-0.830,0.230
'17:00.381',-0.820,0.245
'17:00.383',-0.815,0.275
'17:00.386',-0.815,0.295
'17:00.389',-0.845,0.315
'17:00.392',-0.840,0.335
'17:00.394',-0.850,0.365
'17:00.397',-0.860,0.385
'17:00.400',-0.860,0.415
'17:00.403',-0.855,0.420
'17:00.406',-0.835,0.400
'17:00.408',-0.835,0.380
'17:00.411',-0.815,0.360
'17:00.414',-0.805,0.325
'17:00.417',-0.775,0.290
'17:00.419',-0.735,0.270
'17:00.422',-0.700,0.240
'17:00.425',-0.655,0.215
'17:00.428',-0.640,0.190
'17:00.431',-0.640,0.150
'17:00.433',-0.625,0.140
'17:00.436',-0.635,0.100
'17:00.439',-0.630,0.090
'17:00.442',-0.625,0.075
'17:00.444',-0.610,0.075
'17:00.447',-0.575,0.085
'17:00.450',-0.570,0.090
'17:00.453',-0.565,0.110
'17:00.456',-0.575,0.090
'17:00.458',-0.620,0.080
'17:00.461',-0.680,0.070
'17:00.464',-0.755,0.020
'17:00.467',-0.825,-0.005
'17:00.469',-0.885,-0.020
'17:00.472',-0.915,-0.020
'17:00.475',-0.945,-0.015
'17:00.478',-0.965,-0.020
'17:00.481',-0.965,-0.020
'17:00.483',-0.970,-0.025
'17:00.486',-0.970,-0.030
'17:00.489',-0.965,-0.030
'17:00.492',-0.960,-0.040
'17:00.494',-0.955,-0.045
'17:00.497',-0.940,-0.040
'17:00.500',-0.945,-0.035
'17:00.503',-0.970,-0.035
'17:00.506',-0.975,-0.055
'17:00.508',-1.000,-0.050
'17:00.511',-0.995,-0.045
'17:00.514',-0.975,-0.045
'17:00.517',-0.960,-0.025
'17:00.519',-0.945,-0.040
'17:00.522',-0.935,-0.015
'17:00.525',-0.935,-0.025
'17:00.528',-0.940,-0.025
'17:00.531',-0.950,-0.015
'17:00.533',-0.950,0.005
'17:00.536',-0.955,0.035
'17:00.539',-0.960,0.090
'17:00.542',-0.975,0.140
'17:00.544',-0.980,0.145
'17:00.547',-0.990,0.075
'17:00.550',-0.960,-0.110
'17:00.553',-0.865,-0.405
'17:00.556',-0.685,-0.760
'17:00.558',-0.415,-1.160
'17:00.561',-0.060,-1.500
'17:00.564',0.360,-1.775
'17:00.567',0.820,-1.955
'17:00.569',1.285,-2.055
'17:00.572',1.665,-2.075
'17:00.575',1.920,-2.060
'17:00.578',2.015,-2.030
'17:00.581',1.895,-1.970
'17:00.583',1.645,-1.930
'17:00.586',1.245,-1.860
'17:00.589',0.785,-1.810
'17:00.592',0.285,-1.695
'17:00.594',-0.210,-1.440
'17:00.597',-0.640,-1.115
'17:00.600',-1.005,-0.770
'17:00.603',-1.285,-0.485
'17:00.606',-1.460,-0.290
'17:00.608',-1.500,-0.200
'17:00.611',-1.435,-0.170
'17:00.614',-1.305,-0.180
'17:00.617',-1.180,-0.190
'17:00.619',-1.070,-0.185
'17:00.622',-1.030,-0.175
'17:00.625',-1.025,-0.160
'17:00.628',-1.050,-0.145
'17:00.631',-1.090,-0.135
'17:00.633',-1.115,-0.115
'17:00.636',-1.165,-0.110
'17:00.639',-1.175,-0.100
'17:00.642',-1.200,-0.100
'17:00.644',-1.205,-0.090
'17:00.647',-1.185,-0.080
'17:00.650',-1.195,-0.070
'17:00.653',-1.185,-0.065
'17:00.656',-1.175,-0.035
'17:00.658',-1.180,-0.025
'17:00.661',-1.205,-0.005
'17:00.664',-1.205,-0.010
'17:00.667',-1.215,-0.015
'17:00.669',-1.240,-0.015
'17:00.672',-1.240,-0.010
'17:00.675',-1.250,0.015
'17:00.678',-1.250,0.040
'17:00.681',-1.250,0.065
'17:00.683',-1.265,0.090
'17:00.686',-1.255,0.105
'17:00.689',-1.245,0.125
'17:00.692',-1.225,0.130
'17:00.694',-1.225,0.150
'17:00.697',-1.200,0.140
'17:00.700',-1.215,0.145
'17:00.703',-1.220,0.150
'17:00.706',-1.210,0.165
'17:00.708',-1.215,0.170
'17:00.711',-1.185,0.185
'17:00.714',-1.165,0.215
'17:00.717',-1.135,0.225
'17:00.719',-1.110,0.250
'17:00.722',-1.080,0.280
'17:00.725',-1.060,0.285
'17:00.728',-1.035,0.295
'17:00.731',-1.020,0.300
'17:00.733',-0.985,0.300
'17:00.736',-0.955,0.295
'17:00.739',-0.940,0.310
'17:00.742',-0.895,0.325
'17:00.744',-0.860,0.335
'17:00.747',-0.825,0.340
'17:00.750',-0.785,0.360
'17:00.753',-0.730,0.370
'17:00.756',-0.675,0.365
'17:00.758',-0.630,0.370
'17:00.761',-0.580,0.375
'17:00.764',-0.535,0.370
'17:00.767',-0.510,0.370
'17:00.769',-0.485,0.375
'17:00.772',-0.470,0.365
'17:00.775',-0.435,0.380
'17:00.778',-0.390,0.370
'17:00.781',-0.330,0.370
'17:00.783',-0.265,0.360
'17:00.786',-0.210,0.370
'17:00.789',-0.160,0.365
'17:00.792',-0.125,0.340
'17:00.794',-0.095,0.330
'17:00.797',-0.075,0.320
'17:00.800',-0.050,0.300
'17:00.803',-0.025,0.290
'17:00.806',0.000,0.265
'17:00.808',0.030,0.255
'17:00.811',0.055,0.240
'17:00.814',0.075,0.260
'17:00.817',0.080,0.250
'17:00.819',0.090,0.240
'17:00.822',0.100,0.210
'17:00.825',0.105,0.190
'17:00.828',0.095,0.175
'17:00.831',0.120,0.160
'17:00.833',0.110,0.145
'17:00.836',0.085,0.125
'17:00.839',0.070,0.110
'17:00.842',0.060,0.100
'17:00.844',0.055,0.090
'17:00.847',0.040,0.080
'17:00.850',0.040,0.075
'17:00.853',0.035,0.065
'17:00.856',0.020,0.065
'17:00.858',-0.005,0.050
'17:00.861',-0.040,0.045
'17:00.864',-0.070,0.050
'17:00.867',-0.110,0.050
'17:00.869',-0.120,0.040
'17:00.872',-0.155,0.035
'17:00.875',-0.170,0.055
'17:00.878',-0.200,0.055
'17:00.881',-0.235,0.055
'17:00.883',-0.260,0.065
'17:00.886',-0.300,0.070
'17:00.889',-0.320,0.105
'17:00.892',-0.340,0.095
'17:00.894',-0.355,0.100
'17:00.897',-0.400,0.100
'17:00.900',-0.435,0.105
'17:00.903',-0.465,0.110
'17:00.906',-0.510,0.100
'17:00.908',-0.535,0.125
'17:00.911',-0.545,0.135
'17:00.914',-0.545,0.140
'17:00.917',-0.540,0.160
'17:00.919',-0.565,0.165
'17:00.922',-0.560,0.160
'17:00.925',-0.575,0.160
'17:00.928',-0.605,0.170
'17:00.931',-0.615,0.195
'17:00.933',-0.635,0.225
'17:00.936',-0.645,0.240
'17:00.939',-0.655,0.245
'17:00.942',-0.660,0.265
'17:00.944',-0.670,0.285
'17:00.947',-0.675,0.310
'17:00.950',-0.685,0.350
'17:00.953',-0.670,0.365
'17:00.956',-0.650,0.345
'17:00.958',-0.620,0.335
'17:00.961',-0.580,0.315
'17:00.964',-0.530,0.290
'17:00.967',-0.505,0.255
'17:00.969',-0.500,0.225
'17:00.972',-0.490,0.195
'17:00.975',-0.485,0.170
'17:00.978',-0.485,0.130
'17:00.981',-0.470,0.105
'17:00.983',-0.450,0.090
'17:00.986',-0.420,0.065
'17:00.989',-0.385,0.065
'17:00.992',-0.385,0.050
'17:00.994',-0.390,0.040
'17:00.997',-0.400,0.035
'17:01.000',-0.430,0.015
'17:01.003',-0.445,0.015
'17:01.006',-0.495,-0.005
'17:01.008',-0.535,-0.015
'17:01.011',-0.590,-0.030
'17:01.014',-0.645,-0.045
'17:01.017',-0.695,-0.040
'17:01.019',-0.735,-0.055
'17:01.022',-0.760,-0.045
'17:01.025',-0.770,-0.055
'17:01.028',-0.775,-0.065
'17:01.031',-0.755,-0.075
'17:01.033',-0.740,-0.080
'17:01.036',-0.730,-0.095
'17:01.039',-0.735,-0.100
'17:01.042',-0.740,-0.100
'17:01.044',-0.745,-0.100
'17:01.047',-0.770,-0.090
'17:01.050',-0.750,-0.085
'17:01.053',-0.740,-0.075
'17:01.056',-0.715,-0.060
'17:01.058',-0.710,-0.050
'17:01.061',-0.710,-0.060
'17:01.064',-0.720,-0.080
'17:01.067',-0.730,-0.115
'17:01.069',-0.745,-0.125
'17:01.072',-0.745,-0.130
'17:01.075',-0.745,-0.115
'17:01.078',-0.725,-0.075
'17:01.081',-0.730,-0.035
'17:01.083',-0.730,0.010
'17:01.086',-0.730,0.070
'17:01.089',-0.745,0.135
'17:01.092',-0.760,0.150
'17:01.094',-0.775,0.135
'17:01.097',-0.755,0.055
'17:01.100',-0.720,-0.115
'17:01.103',-0.630,-0.375
'17:01.106',-0.465,-0.730
'17:01.108',-0.240,-1.145
'17:01.111',0.030,-1.535
'17:01.114',0.380,-1.845
'17:01.117',0.770,-2.075
'17:01.119',1.185,-2.205
'17:01.122',1.570,-2.260
'17:01.125',1.845,-2.280
'17:01.128',1.925,-2.250
'17:01.131',1.780,-2.225
'17:01.133',1.440,-2.185
'17:01.136',0.990,-2.140
'17:01.139',0.480,-2.070
'17:01.142',-0.015,-1.910
'17:01.144',-0.435,-1.630
'17:01.147',-0.760,-1.260
'17:01.150',-0.995,-0.875
'17:01.153',-1.160,-0.555
'17:01.156',-1.260,-0.365
'17:01.158',-1.295,-0.255
'17:01.161',-1.270,-0.225
'17:01.164',-1.170,-0.255
'17:01.167',-1.075,-0.270
'17:01.169',-0.960,-0.285
'17:01.172',-0.870,-0.270
'17:01.175',-0.830,-0.235
'17:01.178',-0.830,-0.210
'17:01.181',-0.860,-0.190
'17:01.183',-0.885,-0.175
'17:01.186',-0.915,-0.165
'17:01.189',-0.920,-0.155
'17:01.192',-0.915,-0.140
'17:01.194',-0.920,-0.125
'17:01.197',-0.910,-0.110
'17:01.200',-0.920,-0.100
'17:01.203',-0.930,-0.090
'17:01.206',-0.950,-0.085
'17:01.208',-0.965,-0.085
'17:01.211',-0.975,-0.075
'17:01.214',-0.965,-0.065
'17:01.217',-0.960,-0.045
'17:01.219',-0.950,-0.010
'17:01.222',-0.945,0.005
'17:01.225',-0.960,0.020
'17:01.228',-0.960,0.025
'17:01.231',-0.960,0.015
'17:01.233',-0.970,0.005
'17:01.236',-0.980,0.000
'17:01.239',-0.975,0.015
'17:01.242',-0.960,0.030
'17:01.244',-0.965,0.045
'17:01.247',-0.955,0.085
'17:01.250',-0.960,0.110
'17:01.253',-0.945,0.125
'17:01.256',-0.940,0.150
'17:01.258',-0.920,0.170
'17:01.261',-0.900,0.180
'17:01.264',-0.880,0.175
'17:01.267',-0.870,0.185
'17:01.269',-0.850,0.175
'17:01.272',-0.825,0.185
'17:01.275',-0.820,0.215
'17:01.278',-0.785,0.225
'17:01.281',-0.735,0.250
'17:01.283',-0.700,0.270
'17:01.286',-0.660,0.290
'17:01.289',-0.625,0.305
'17:01.292',-0.595,0.325
'17:01.294',-0.575,0.350
'17:01.297',-0.565,0.360
'17:01.300',-0.555,0.365
'17:01.303',-0.535,0.375
'17:01.306',-0.505,0.370
'17:01.308',-0.475,0.380
'17:01.311',-0.435,0.385
'17:01.314',-0.385,0.395
'17:01.317',-0.345,0.425
'17:01.319',-0.300,0.435
'17:01.322',-0.265,0.465
'17:01.325',-0.230,0.445
'17:01.328',-0.185,0.435
'17:01.331',-0.150,0.430
'17:01.333',-0.120,0.420
'17:01.336',-0.095,0.415
'17:01.339',-0.065,0.405
'17:01.342',-0.045,0.405
'17:01.344',-0.020,0.405
'17:01.347',0.005,0.415
'17:01.350',0.035,0.415
'17:01.353',0.075,0.400
'17:01.356',0.105,0.390
'17:01.358',0.135,0.385
'17:01.361',0.155,0.390
'17:01.364',0.160,0.380
'17:01.367',0.155,0.370
'17:01.369',0.145,0.325
'17:01.372',0.135,0.300
'17:01.375',0.140,0.280
'17:01.378',0.155,0.270
'17:01.381',0.175,0.260
'17:01.383',0.200,0.255
'17:01.386',0.210,0.260
'17:01.389',0.200,0.260
'17:01.392',0.185,0.240
'17:01.394',0.160,0.220
'17:01.397',0.125,0.195
'17:01.400',0.105,0.160
'17:01.403',0.075,0.125
'17:01.406',0.075,0.110
'17:01.408',0.040,0.115
'17:01.411',0.015,0.115
'17:01.414',-0.010,0.120
'17:01.417',-0.035,0.100
'17:01.419',-0.050,0.085
'17:01.422',-0.065,0.080
'17:01.425',-0.055,0.055
'17:01.428',-0.070,0.055
'17:01.431',-0.090,0.040
'17:01.433',-0.125,0.045
'17:01.436',-0.160,0.060
'17:01.439',-0.210,0.055
'17:01.442',-0.245,0.060
'17:01.444',-0.275,0.070
'17:01.447',-0.310,0.070
'17:01.450',-0.340,0.075
'17:01.453',-0.360,0.085
'17:01.456',-0.385,0.100
'17:01.458',-0.430,0.100
'17:01.461',-0.445,0.115
'17:01.464',-0.480,0.105
'17:01.467',-0.515,0.120
'17:01.469',-0.550,0.130
'17:01.472',-0.575,0.130
'17:01.475',-0.595,0.150
'17:01.478',-0.615,0.155
'17:01.481',-0.640,0.170
'17:01.483',-0.655,0.170
'17:01.486',-0.675,0.170
'17:01.489',-0.690,0.175
'17:01.492',-0.695,0.165
'17:01.494',-0.700,0.150
'17:01.497',-0.720,0.170
'17:01.500',-0.750,0.160
'17:01.503',-0.755,0.165
'17:01.506',-0.785,0.170
'17:01.508',-0.785,0.190
'17:01.511',-0.785,0.210
'17:01.514',-0.760,0.225
'17:01.517',-0.735,0.235
'17:01.519',-0.725,0.245
'17:01.522',-0.720,0.270
'17:01.525',-0.730,0.295
'17:01.528',-0.745,0.325
'17:01.531',-0.745,0.350
'17:01.533',-0.750,0.360
'17:01.536',-0.710,0.365
'17:01.539',-0.685,0.345
'17:01.542',-0.650,0.320
'17:01.544',-0.640,0.295
'17:01.547',-0.610,0.290
'17:01.550',-0.590,0.275
'17:01.553',-0.570,0.270
'17:01.556',-0.565,0.260
'17:01.558',-0.525,0.215
'17:01.561',-0.505,0.190
'17:01.564',-0.470,0.160
'17:01.567',-0.450,0.130
'17:01.569',-0.420,0.100
'17:01.572',-0.425,0.070
'17:01.575',-0.435,0.055
'17:01.578',-0.445,0.035
'17:01.581',-0.455,0.030
'17:01.583',-0.465,0.040
'17:01.586',-0.490,0.015
'17:01.589',-0.535,0.020
'17:01.592',-0.595,0.005
'17:01.594',-0.640,-0.005
'17:01.597',-0.695,-0.020
'17:01.600',-0.760,-0.040
'17:01.603',-0.780,-0.045
'17:01.606',-0.785,-0.045
'17:01.608',-0.790,-0.065
'17:01.611',-0.790,-0.055
'17:01.614',-0.780,-0.065
'17:01.617',-0.790,-0.065
'17:01.619',-0.800,-0.070
'17:01.622',-0.795,-0.075
'17:01.625',-0.790,-0.070
'17:01.628',-0.790,-0.070
'17:01.631',-0.770,-0.070
'17:01.633',-0.765,-0.070
'17:01.636',-0.750,-0.090
'17:01.639',-0.755,-0.090
'17:01.642',-0.780,-0.100
'17:01.644',-0.795,-0.100
'17:01.647',-0.815,-0.105
'17:01.650',-0.820,-0.085
'17:01.653',-0.810,-0.065
'17:01.656',-0.785,-0.040
'17:01.658',-0.755,-0.035
'17:01.661',-0.755,-0.020
'17:01.664',-0.765,0.015
'17:01.667',-0.785,0.050
'17:01.669',-0.820,0.090
'17:01.672',-0.870,0.090
'17:01.675',-0.875,0.030
'17:01.678',-0.835,-0.130
'17:01.681',-0.730,-0.380
'17:01.683',-0.545,-0.735
'17:01.686',-0.295,-1.135
'17:01.689',0.030,-1.450
'17:01.692',0.425,-1.700
'17:01.694',0.885,-1.830
'17:01.697',1.350,-1.860
'17:01.700',1.720,-1.855
'17:01.703',1.960,-1.825
'17:01.706',1.950,-1.775
'17:01.708',1.700,-1.675
'17:01.711',1.295,-1.590
'17:01.714',0.775,-1.490
'17:01.717',0.240,-1.330
'17:01.719',-0.265,-1.100
'17:01.722',-0.710,-0.850
'17:01.725',-1.075,-0.665
'17:01.728',-1.350,-0.520
'17:01.731',-1.515,-0.435
'17:01.733',-1.565,-0.375
'17:01.736',-1.495,-0.320
'17:01.739',-1.370,-0.285
'17:01.742',-1.225,-0.235
'17:01.744',-1.115,-0.185
'17:01.747',-1.050,-0.130
'17:01.750',-1.010,-0.105
'17:01.753',-1.010,-0.100
'17:01.756',-1.030,-0.110
'17:01.758',-1.040,-0.120
'17:01.761',-1.070,-0.125
'17:01.764',-1.065,-0.135
'17:01.767',-1.070,-0.110
'17:01.769',-1.075,-0.100
'17:01.772',-1.090,-0.095
'17:01.775',-1.100,-0.080
'17:01.778',-1.120,-0.080
'17:01.781',-1.135,-0.055
'17:01.783',-1.135,-0.050
'17:01.786',-1.140,-0.030
'17:01.789',-1.105,-0.010
'17:01.792',-1.095,0.000
'17:01.794',-1.095,0.010
'17:01.797',-1.095,0.010
'17:01.800',-1.115,-0.005
'17:01.803',-1.105,-0.005
'17:01.806',-1.110,-0.005
'17:01.808',-1.115,0.000
'17:01.811',-1.110,0.010
'17:01.814',-1.100,0.040
'17:01.817',-1.090,0.055
'17:01.819',-1.070,0.090
'17:01.822',-1.065,0.100
'17:01.825',-1.060,0.095
'17:01.828',-1.050,0.120
'17:01.831',-1.020,0.120
'17:01.833',-1.010,0.130
'17:01.836',-0.990,0.160
'17:01.839',-0.985,0.165
'17:01.842',-0.985,0.175
'17:01.844',-0.970,0.175
'17:01.847',-0.955,0.175
'17:01.850',-0.925,0.180
'17:01.853',-0.880,0.200
'17:01.856',-0.840,0.215
'17:01.858',-0.795,0.230
'17:01.861',-0.775,0.260
'17:01.864',-0.775,0.270
'17:01.867',-0.770,0.270
'17:01.869',-0.760,0.260
'17:01.872',-0.740,0.260
'17:01.875',-0.695,0.270
'17:01.878',-0.670,0.290
'17:01.881',-0.620,0.310
'17:01.883',-0.585,0.330
'17:01.886',-0.565,0.350
'17:01.889',-0.540,0.345
'17:01.892',-0.505,0.325
'17:01.894',-0.475,0.325
'17:01.897',-0.450,0.325
'17:01.900',-0.415,0.330
'17:01.903',-0.385,0.315
'17:01.906',-0.365,0.305
'17:01.908',-0.330,0.300
'17:01.911',-0.305,0.280
'17:01.914',-0.260,0.275
'17:01.917',-0.220,0.250
'17:01.919',-0.190,0.250
'17:01.922',-0.145,0.245
'17:01.925',-0.115,0.235
'17:01.928',-0.095,0.230
'17:01.931',-0.075,0.215
'17:01.933',-0.070,0.185
'17:01.936',-0.045,0.140
'17:01.939',-0.040,0.105
'17:01.942',-0.015,0.080
'17:01.944',-0.010,0.085
'17:01.947',-0.005,0.085
'17:01.950',0.000,0.085
'17:01.953',-0.005,0.095
'17:01.956',-0.015,0.085
'17:01.958',-0.010,0.065
'17:01.961',-0.015,0.050
'17:01.964',-0.010,0.040
'17:01.967',-0.035,0.035
'17:01.969',-0.065,0.035
'17:01.972',-0.110,0.030
'17:01.975',-0.150,0.025
'17:01.978',-0.185,0.025
'17:01.981',-0.195,0.025
'17:01.983',-0.210,0.025
'17:01.986',-0.210,0.040
'17:01.989',-0.225,0.060
'17:01.992',-0.260,0.055
'17:01.994',-0.300,0.060
'17:01.997',-0.360,0.065
'17:02.000',-0.410,0.070
'17:02.003',-0.435,0.065
'17:02.006',-0.470,0.075
'17:02.008',-0.500,0.090
'17:02.011',-0.520,0.115
'17:02.014',-0.550,0.135
'17:02.017',-0.585,0.150
'17:02.019',-0.615,0.150
'17:02.022',-0.630,0.160
'17:02.025',-0.650,0.155
'17:02.028',-0.655,0.150
'17:02.031',-0.680,0.160
'17:02.033',-0.695,0.160
'17:02.036',-0.730,0.170
'17:02.039',-0.745,0.170
'17:02.042',-0.750,0.190
'17:02.044',-0.740,0.185
'17:02.047',-0.735,0.180
'17:02.050',-0.720,0.160
'17:02.053',-0.710,0.170
'17:02.056',-0.710,0.185
'17:02.058',-0.730,0.210
'17:02.061',-0.740,0.235
'17:02.064',-0.740,0.270
'17:02.067',-0.740,0.275
'17:02.069',-0.740,0.295
'17:02.072',-0.740,0.320
'17:02.075',-0.730,0.350
'17:02.078',-0.735,0.370
'17:02.081',-0.730,0.390
'17:02.083',-0.705,0.395
'17:02.086',-0.690,0.385
'17:02.089',-0.655,0.365
'17:02.092',-0.615,0.320
'17:02.094',-0.575,0.290
'17:02.097',-0.570,0.255
'17:02.100',-0.550,0.225
'17:02.103',-0.530,0.185
'17:02.106',-0.515,0.160
'17:02.108',-0.500,0.140
'17:02.111',-0.480,0.130
'17:02.114',-0.455,0.130
'17:02.117',-0.440,0.115
'17:02.119',-0.435,0.100
'17:02.122',-0.435,0.085
'17:02.125',-0.470,0.080
'17:02.128',-0.490,0.080
'17:02.131',-0.530,0.065
'17:02.133',-0.555,0.060
'17:02.136',-0.610,0.045
'17:02.139',-0.670,0.025
'17:02.142',-0.715,0.020
'17:02.144',-0.780,0.000
'17:02.147',-0.820,-0.010
'17:02.150',-0.845,-0.015
'17:02.153',-0.860,-0.020
'17:02.156',-0.855,-0.020
'17:02.158',-0.845,-0.025
'17:02.161',-0.840,-0.025
'17:02.164',-0.835,-0.030
'17:02.167',-0.840,-0.035
'17:02.169',-0.840,-0.045
'17:02.172',-0.865,-0.035
'17:02.175',-0.870,-0.040
'17:02.178',-0.880,-0.030
'17:02.181',-0.870,-0.030
'17:02.183',-0.850,-0.030
'17:02.186',-0.850,-0.020
'17:02.189',-0.840,-0.025
'17:02.192',-0.845,-0.045
'17:02.194',-0.845,-0.065
'17:02.197',-0.870,-0.060
'17:02.200',-0.865,-0.040
'17:02.203',-0.865,-0.025
'17:02.206',-0.865,-0.010
'17:02.208',-0.865,0.030
'17:02.211',-0.875,0.065
'17:02.214',-0.885,0.135
'17:02.217',-0.900,0.160
'17:02.219',-0.915,0.140
'17:02.222',-0.905,0.020
'17:02.225',-0.845,-0.220
'17:02.228',-0.715,-0.560
'17:02.231',-0.510,-0.960
'17:02.233',-0.225,-1.340
'17:02.236',0.140,-1.630
'17:02.239',0.555,-1.825
'17:02.242',1.035,-1.925
'17:02.244',1.475,-1.945
'17:02.247',1.820,-1.925
'17:02.250',2.015,-1.895
'17:02.253',1.980,-1.860
'17:02.256',1.775,-1.810
'17:02.258',1.425,-1.765
'17:02.261',1.000,-1.710
'17:02.264',0.530,-1.635
'17:02.267',0.060,-1.475
'17:02.269',-0.375,-1.225
'17:02.272',-0.765,-0.925
'17:02.275',-1.085,-0.650
'17:02.278',-1.345,-0.445
'17:02.281',-1.490,-0.320
'17:02.283',-1.520,-0.255
'17:02.286',-1.450,-0.230
'17:02.289',-1.320,-0.215
'17:02.292',-1.175,-0.185
'17:02.294',-1.075,-0.150
'17:02.297',-1.020,-0.125
'17:02.300',-1.030,-0.105
'17:02.303',-1.070,-0.110
'17:02.306',-1.125,-0.110
'17:02.308',-1.170,-0.110
'17:02.311',-1.170,-0.100
'17:02.314',-1.180,-0.075
'17:02.317',-1.160,-0.055
'17:02.319',-1.145,-0.035
'17:02.322',-1.125,-0.020
'17:02.325',-1.125,-0.035
'17:02.328',-1.145,-0.025
'17:02.331',-1.170,-0.020
'17:02.333',-1.180,-0.015
'17:02.336',-1.190,-0.025
'17:02.339',-1.200,-0.005
'17:02.342',-1.195,0.010
'17:02.344',-1.190,0.030
'17:02.347',-1.200,0.045
'17:02.350',-1.200,0.065
'17:02.353',-1.210,0.070
'17:02.356',-1.210,0.075
'17:02.358',-1.210,0.085
'17:02.361',-1.200,0.090
'17:02.364',-1.195,0.110
'17:02.367',-1.180,0.125
'17:02.369',-1.185,0.130
'17:02.372',-1.185,0.140
'17:02.375',-1.190,0.135
'17:02.378',-1.205,0.140
'17:02.381',-1.190,0.140
'17:02.383',-1.175,0.180
'17:02.386',-1.150,0.190
'17:02.389',-1.115,0.225
'17:02.392',-1.095,0.230
'17:02.394',-1.070,0.250
'17:02.397',-1.065,0.255
'17:02.400',-1.060,0.250
'17:02.403',-1.040,0.245
'17:02.406',-1.030,0.245
'17:02.408',-1.005,0.270
'17:02.411',-0.990,0.295
'17:02.414',-0.925,0.320
'17:02.417',-0.880,0.325
'17:02.419',-0.855,0.345
'17:02.422',-0.830,0.365
'17:02.425',-0.810,0.350
'17:02.428',-0.775,0.350
'17:02.431',-0.735,0.350
'17:02.433',-0.705,0.345
'17:02.436',-0.660,0.355
'17:02.439',-0.630,0.370
'17:02.442',-0.595,0.380
'17:02.444',-0.570,0.400
'17:02.447',-0.540,0.395
'17:02.450',-0.505,0.385
'17:02.453',-0.475,0.380
'17:02.456',-0.420,0.375
'17:02.458',-0.360,0.370
'17:02.461',-0.315,0.380
'17:02.464',-0.285,0.385
'17:02.467',-0.255,0.370
'17:02.469',-0.225,0.375
'17:02.472',-0.200,0.345
'17:02.475',-0.185,0.335
'17:02.478',-0.150,0.315
'17:02.481',-0.085,0.310
'17:02.483',-0.035,0.315
'17:02.486',0.000,0.310
'17:02.489',0.035,0.310
'17:02.492',0.055,0.290
'17:02.494',0.060,0.265
'17:02.497',0.070,0.230
'17:02.500',0.095,0.195
'17:02.503',0.100,0.170
'17:02.506',0.105,0.170
'17:02.508',0.105,0.165
'17:02.511',0.100,0.170
'17:02.514',0.095,0.175
'17:02.517',0.085,0.165
'17:02.519',0.095,0.150
'17:02.522',0.095,0.145
'17:02.525',0.090,0.130
'17:02.528',0.080,0.125
'17:02.531',0.050,0.115
'17:02.533',0.030,0.110
'17:02.536',-0.010,0.090
'17:02.539',-0.040,0.080
'17:02.542',-0.075,0.070
'17:02.544',-0.100,0.065
'17:02.547',-0.115,0.070
'17:02.550',-0.135,0.090
'17:02.553',-0.165,0.105
'17:02.556',-0.185,0.115
'17:02.558',-0.210,0.115
'17:02.561',-0.240,0.105
'17:02.564',-0.255,0.090
'17:02.567',-0.295,0.090
'17:02.569',-0.325,0.110
'17:02.572',-0.365,0.115
'17:02.575',-0.395,0.140
'17:02.578',-0.425,0.145
'17:02.581',-0.455,0.155
'17:02.583',-0.465,0.175
'17:02.586',-0.480,0.180
'17:02.589',-0.465,0.185
'17:02.592',-0.480,0.190
'17:02.594',-0.490,0.195
'17:02.597',-0.510,0.195
'17:02.600',-0.535,0.220
'17:02.603',-0.560,0.240
'17:02.606',-0.590,0.250
'17:02.608',-0.595,0.255
'17:02.611',-0.595,0.280
'17:02.614',-0.595,0.295
'17:02.617',-0.605,0.325
'17:02.619',-0.595,0.355
'17:02.622',-0.605,0.400
'17:02.625',-0.595,0.425
'17:02.628',-0.590,0.445
'17:02.631',-0.585,0.435
'17:02.633',-0.560,0.400
'17:02.636',-0.550,0.370
'17:02.639',-0.525,0.335
'17:02.642',-0.505,0.315
'17:02.644',-0.490,0.285
'17:02.647',-0.465,0.290
'17:02.650',-0.440,0.255
'17:02.653',-0.425,0.225
'17:02.656',-0.395,0.175
'17:02.658',-0.365,0.140
'17:02.661',-0.350,0.140
'17:02.664',-0.340,0.120
'17:02.667',-0.340,0.110
'17:02.669',-0.335,0.090
'17:02.672',-0.345,0.090
'17:02.675',-0.350,0.085
'17:02.678',-0.375,0.065
'17:02.681',-0.405,0.055
'17:02.683',-0.445,0.035
'17:02.686',-0.515,0.035
'17:02.689',-0.565,0.030
'17:02.692',-0.615,0.020
'17:02.694',-0.660,0.025
'17:02.697',-0.685,0.020
'17:02.700',-0.705,0.000
'17:02.703',-0.710,-0.020
'17:02.706',-0.730,-0.020
'17:02.708',-0.715,-0.020
'17:02.711',-0.720,-0.020
'17:02.714',-0.735,0.005
'17:02.717',-0.710,-0.005
'17:02.719',-0.705,-0.005
'17:02.722',-0.695,-0.010
'17:02.725',-0.700,-0.030
'17:02.728',-0.700,-0.030
'17:02.731',-0.700,-0.030
'17:02.733',-0.720,-0.030
'17:02.736',-0.720,-0.040
'17:02.739',-0.735,-0.035
'17:02.742',-0.725,-0.020
'17:02.744',-0.725,-0.025
'17:02.747',-0.700,-0.005
'17:02.750',-0.695,-0.005
'17:02.753',-0.705,0.035
'17:02.756',-0.725,0.070
'17:02.758',-0.730,0.120
'17:02.761',-0.750,0.160
'17:02.764',-0.755,0.175
'17:02.767',-0.745,0.105
'17:02.769',-0.735,-0.045
'17:02.772',-0.670,-0.310
'17:02.775',-0.545,-0.660
'17:02.778',-0.320,-1.050
'17:02.781',-0.030,-1.380
'17:02.783',0.335,-1.660
'17:02.786',0.775,-1.840
'17:02.789',1.215,-1.955
'17:02.792',1.620,-2.030
'17:02.794',1.930,-2.055
'17:02.797',2.105,-2.060
'17:02.800',2.085,-2.055
'17:02.803',1.900,-2.020
'17:02.806',1.585,-1.985
'17:02.808',1.180,-1.915
'17:02.811',0.730,-1.820
'17:02.814',0.285,-1.635
'17:02.817',-0.115,-1.350
'17:02.819',-0.500,-0.965
'17:02.822',-0.810,-0.620
'17:02.825',-1.050,-0.375
'17:02.828',-1.200,-0.230
'17:02.831',-1.230,-0.175
'17:02.833',-1.155,-0.170
'17:02.836',-1.040,-0.195
'17:02.839',-0.930,-0.220
'17:02.842',-0.850,-0.195
'17:02.844',-0.820,-0.195
'17:02.847',-0.835,-0.130
'17:02.850',-0.855,-0.090
'17:02.853',-0.885,-0.080
'17:02.856',-0.895,-0.095
'17:02.858',-0.900,-0.100
'17:02.861',-0.895,-0.115
'17:02.864',-0.895,-0.130
'17:02.867',-0.910,-0.130
'17:02.869',-0.920,-0.135
'17:02.872',-0.935,-0.115
'17:02.875',-0.965,-0.095
'17:02.878',-0.970,-0.075
'17:02.881',-0.960,-0.060
'17:02.883',-0.960,-0.040
'17:02.886',-0.965,-0.040
'17:02.889',-0.965,-0.015
'17:02.892',-0.975,-0.015
'17:02.894',-0.980,0.010
'17:02.897',-0.980,0.015
'17:02.900',-0.985,0.030
'17:02.903',-0.980,0.030
'17:02.906',-0.980,0.040
'17:02.908',-0.975,0.050
'17:02.911',-0.985,0.050
'17:02.914',-0.990,0.070
'17:02.917',-0.975,0.090
'17:02.919',-0.965,0.120
'17:02.922',-0.945,0.135
'17:02.925',-0.935,0.155
'17:02.928',-0.920,0.180
'17:02.931',-0.915,0.160
'17:02.933',-0.920,0.170
'17:02.936',-0.910,0.155
'17:02.939',-0.900,0.170
'17:02.942',-0.895,0.180
'17:02.944',-0.875,0.210
'17:02.947',-0.830,0.230
'17:02.950',-0.790,0.265
'17:02.953',-0.760,0.290
'17:02.956',-0.720,0.310
'17:02.958',-0.690,0.315
'17:02.961',-0.660,0.305
'17:02.964',-0.630,0.305
'17:02.967',-0.575,0.315
'17:02.969',-0.530,0.310
'17:02.972',-0.480,0.340
'17:02.975',-0.440,0.355
'17:02.978',-0.400,0.370
'17:02.981',-0.350,0.380
'17:02.983',-0.305,0.390
'17:02.986',-0.265,0.410
'17:02.989',-0.210,0.410
'17:02.992',-0.155,0.390
'17:02.994',-0.105,0.400
'17:02.997',-0.075,0.395
'17:03.000',-0.035,0.385
'17:03.003',0.010,0.390
'17:03.006',0.030,0.370
'17:03.008',0.075,0.370
'17:03.011',0.110,0.355
'17:03.014',0.180,0.355
'17:03.017',0.235,0.360
'17:03.019',0.290,0.355
'17:03.022',0.335,0.360
'17:03.025',0.360,0.350
'17:03.028',0.385,0.335
'17:03.031',0.420,0.305
'17:03.033',0.425,0.295
'17:03.036',0.450,0.265
'17:03.039',0.475,0.250
'17:03.042',0.495,0.250
'17:03.044',0.505,0.240
'17:03.047',0.490,0.240
'17:03.050',0.490,0.215
'17:03.053',0.475,0.205
'17:03.056',0.465,0.200
'17:03.058',0.470,0.180
'17:03.061',0.465,0.145
'17:03.064',0.470,0.125
'17:03.067',0.475,0.115
'17:03.069',0.445,0.100
'17:03.072',0.420,0.080
'17:03.075',0.385,0.075
'17:03.078',0.340,0.060
'17:03.081',0.315,0.035
'17:03.083',0.305,0.035
'17:03.086',0.305,0.030
'17:03.089',0.280,0.035
'17:03.092',0.285,0.020
'17:03.094',0.255,0.030
'17:03.097',0.210,0.010
'17:03.100',0.175,0.000
'17:03.103',0.140,-0.015
'17:03.106',0.110,-0.010
'17:03.108',0.095,-0.015
'17:03.111',0.090,0.015
'17:03.114',0.075,0.050
'17:03.117',0.045,0.075
'17:03.119',0.005,0.100
'17:03.122',-0.025,0.120
'17:03.125',-0.050,0.110
'17:03.128',-0.080,0.090
'17:03.131',-0.115,0.065
'17:03.133',-0.140,0.060
'17:03.136',-0.165,0.060
'17:03.139',-0.195,0.070
'17:03.142',-0.225,0.085
'17:03.144',-0.275,0.100
'17:03.147',-0.290,0.105
'17:03.150',-0.305,0.095
'17:03.153',-0.310,0.120
'17:03.156',-0.310,0.120
'17:03.158',-0.315,0.125
'17:03.161',-0.330,0.135
'17:03.164',-0.350,0.150
'17:03.167',-0.385,0.155
'17:03.169',-0.405,0.180
'17:03.172',-0.425,0.185
'17:03.175',-0.420,0.200
'17:03.178',-0.410,0.210
'17:03.181',-0.395,0.250
'17:03.183',-0.395,0.290
'17:03.186',-0.380,0.315
'17:03.189',-0.380,0.335
'17:03.192',-0.370,0.330
'17:03.194',-0.360,0.310
'17:03.197',-0.345,0.295
'17:03.200',-0.315,0.265
'17:03.203',-0.300,0.240
'17:03.206',-0.255,0.230
'17:03.208',-0.225,0.210
'17:03.211',-0.210,0.175
'17:03.214',-0.200,0.170
'17:03.217',-0.180,0.140
'17:03.219',-0.160,0.105
'17:03.222',-0.155,0.065
'17:03.225',-0.130,0.030
'17:03.228',-0.100,0.000
'17:03.231',-0.075,0.005
'17:03.233',-0.085,-0.005
'17:03.236',-0.105,-0.010
'17:03.239',-0.135,-0.030
'17:03.242',-0.170,-0.035
'17:03.244',-0.230,-0.045
'17:03.247',-0.275,-0.050
'17:03.250',-0.340,-0.045
'17:03.253',-0.400,-0.050
'17:03.256',-0.445,-0.040
'17:03.258',-0.475,-0.035
'17:03.261',-0.510,-0.050
'17:03.264',-0.510,-0.070
'17:03.267',-0.500,-0.100
'17:03.269',-0.495,-0.110
'17:03.272',-0.480,-0.125
'17:03.275',-0.470,-0.135
'17:03.278',-0.475,-0.115
'17:03.281',-0.485,-0.105
'17:03.283',-0.500,-0.090
'17:03.286',-0.510,-0.080
'17:03.289',-0.515,-0.075
'17:03.292',-0.510,-0.080
'17:03.294',-0.505,-0.095
'17:03.297',-0.505,-0.100
'17:03.300',-0.500,-0.130
'17:03.303',-0.500,-0.130
'17:03.306',-0.515,-0.130
'17:03.308',-0.520,-0.115
'17:03.311',-0.520,-0.110
'17:03.314',-0.520,-0.090
'17:03.317',-0.515,-0.060
'17:03.319',-0.510,-0.005
'17:03.322',-0.530,0.060
'17:03.325',-0.535,0.130
'17:03.328',-0.555,0.145
'17:03.331',-0.570,0.110
'17:03.333',-0.545,-0.005
'17:03.336',-0.490,-0.240
'17:03.339',-0.380,-0.595
'17:03.342',-0.200,-0.995
'17:03.344',0.060,-1.395
'17:03.347',0.380,-1.705
'17:03.350',0.785,-1.925
'17:03.353',1.220,-2.015
'17:03.356',1.660,-2.040
'17:03.358',1.985,-2.015
'17:03.361',2.130,-1.995
'17:03.364',2.060,-1.955
'17:03.367',1.775,-1.925
'17:03.369',1.365,-1.865
'17:03.372',0.875,-1.795
'17:03.375',0.415,-1.690
'17:03.378',-0.020,-1.475
'17:03.381',-0.375,-1.195
'17:03.383',-0.655,-0.910
'17:03.386',-0.875,-0.685
'17:03.389',-1.055,-0.545
'17:03.392',-1.180,-0.485
'17:03.394',-1.235,-0.430
'17:03.397',-1.205,-0.400
'17:03.400',-1.150,-0.355
'17:03.403',-1.050,-0.325
'17:03.406',-0.945,-0.290
'17:03.408',-0.840,-0.235
'17:03.411',-0.765,-0.205
'17:03.414',-0.720,-0.190
'17:03.417',-0.710,-0.170
'17:03.419',-0.730,-0.155
'17:03.422',-0.745,-0.145
'17:03.425',-0.765,-0.130
'17:03.428',-0.765,-0.115
'17:03.431',-0.765,-0.105
'17:03.433',-0.780,-0.095
'17:03.436',-0.775,-0.095
'17:03.439',-0.780,-0.095
'17:03.442',-0.790,-0.115
'17:03.444',-0.800,-0.105
'17:03.447',-0.810,-0.095
'17:03.450',-0.815,-0.080
'17:03.453',-0.810,-0.060
'17:03.456',-0.800,-0.035
'17:03.458',-0.805,-0.020
'17:03.461',-0.790,-0.015
'17:03.464',-0.805,-0.010
'17:03.467',-0.820,-0.015
'17:03.469',-0.835,-0.005
'17:03.472',-0.845,-0.010
'17:03.475',-0.840,0.000
'17:03.478',-0.825,0.025
'17:03.481',-0.800,0.045
'17:03.483',-0.775,0.060
'17:03.486',-0.755,0.075
'17:03.489',-0.750,0.085
'17:03.492',-0.745,0.095
'17:03.494',-0.750,0.095
'17:03.497',-0.735,0.110
'17:03.500',-0.720,0.120
'17:03.503',-0.695,0.135
'17:03.506',-0.660,0.155
'17:03.508',-0.630,0.165
'17:03.511',-0.610,0.170
'17:03.514',-0.595,0.180
'17:03.517',-0.570,0.195
'17:03.519',-0.550,0.215
'17:03.522',-0.510,0.250
'17:03.525',-0.480,0.255
'17:03.528',-0.445,0.280
'17:03.531',-0.420,0.290
'17:03.533',-0.395,0.290
'17:03.536',-0.380,0.300
'17:03.539',-0.370,0.295
'17:03.542',-0.350,0.285
'17:03.544',-0.320,0.315
'17:03.547',-0.290,0.325
'17:03.550',-0.255,0.335
'17:03.553',-0.225,0.340
'17:03.556',-0.180,0.345
'17:03.558',-0.150,0.340
'17:03.561',-0.125,0.310
'17:03.564',-0.090,0.310
'17:03.567',-0.050,0.310
'17:03.569',-0.005,0.310
'17:03.572',0.040,0.295
'17:03.575',0.070,0.295
'17:03.578',0.090,0.270
'17:03.581',0.115,0.255
'17:03.583',0.145,0.240
'17:03.586',0.175,0.235
'17:03.589',0.220,0.235
'17:03.592',0.255,0.235
'17:03.594',0.290,0.220
'17:03.597',0.300,0.200
'17:03.600',0.325,0.185
'17:03.603',0.320,0.165
'17:03.606',0.320,0.140
'17:03.608',0.325,0.110
'17:03.611',0.310,0.100
'17:03.614',0.330,0.105
'17:03.617',0.340,0.080
'17:03.619',0.345,0.090
'17:03.622',0.350,0.080
'17:03.625',0.345,0.070
'17:03.628',0.330,0.055
'17:03.631',0.305,0.050
'17:03.633',0.285,0.035
'17:03.636',0.265,0.030
'17:03.639',0.230,0.025
'17:03.642',0.195,0.025
'17:03.644',0.165,0.010
'17:03.647',0.135,0.005
'17:03.650',0.105,0.010
'17:03.653',0.070,0.015
'17:03.656',0.065,0.030
'17:03.658',0.045,0.050
'17:03.661',0.005,0.045
'17:03.664',-0.010,0.050
'17:03.667',-0.060,0.035
'17:03.669',-0.090,0.035
'17:03.672',-0.125,0.030
'17:03.675',-0.145,0.035
'17:03.678',-0.160,0.050
'17:03.681',-0.180,0.060
'17:03.683',-0.205,0.080
'17:03.686',-0.230,0.095
'17:03.689',-0.265,0.110
'17:03.692',-0.290,0.095
'17:03.694',-0.320,0.115
'17:03.697',-0.330,0.115
'17:03.700',-0.355,0.120
'17:03.703',-0.375,0.130
'17:03.706',-0.410,0.135
'17:03.708',-0.445,0.150
'17:03.711',-0.485,0.140
'17:03.714',-0.500,0.145
'17:03.717',-0.505,0.135
'17:03.719',-0.500,0.135
'17:03.722',-0.485,0.155
'17:03.725',-0.465,0.160
'17:03.728',-0.470,0.175
'17:03.731',-0.475,0.195
'17:03.733',-0.480,0.190
'17:03.736',-0.490,0.190
'17:03.739',-0.485,0.195
'17:03.742',-0.470,0.185
'17:03.744',-0.475,0.205
'17:03.747',-0.460,0.245
'17:03.750',-0.460,0.290
'17:03.753',-0.470,0.330
'17:03.756',-0.470,0.360
'17:03.758',-0.445,0.350
'17:03.761',-0.420,0.345
'17:03.764',-0.380,0.325
'17:03.767',-0.360,0.305
'17:03.769',-0.350,0.295
'17:03.772',-0.340,0.260
'17:03.775',-0.325,0.240
'17:03.778',-0.300,0.230
'17:03.781',-0.275,0.190
'17:03.783',-0.240,0.160
'17:03.786',-0.210,0.140
'17:03.789',-0.185,0.120
'17:03.792',-0.160,0.110
'17:03.794',-0.160,0.100
'17:03.797',-0.160,0.090
'17:03.800',-0.160,0.080
'17:03.803',-0.165,0.050
'17:03.806',-0.180,0.035
'17:03.808',-0.190,0.015
'17:03.811',-0.220,0.000
'17:03.814',-0.270,-0.010
'17:03.817',-0.335,-0.010
'17:03.819',-0.395,-0.005
'17:03.822',-0.450,-0.010
'17:03.825',-0.470,-0.020
'17:03.828',-0.495,-0.035
'17:03.831',-0.510,-0.050
'17:03.833',-0.515,-0.055
'17:03.836',-0.520,-0.065
'17:03.839',-0.515,-0.050
'17:03.842',-0.525,-0.040
'17:03.844',-0.530,-0.055
'17:03.847',-0.520,-0.060
'17:03.850',-0.520,-0.075
'17:03.853',-0.510,-0.085
'17:03.856',-0.510,-0.085
'17:03.858',-0.495,-0.080
'17:03.861',-0.500,-0.080
'17:03.864',-0.510,-0.070
'17:03.867',-0.515,-0.070
'17:03.869',-0.530,-0.060
'17:03.872',-0.545,-0.085
'17:03.875',-0.525,-0.085
'17:03.878',-0.525,-0.080
'17:03.881',-0.520,-0.055
'17:03.883',-0.525,-0.020
'17:03.886',-0.535,0.035
'17:03.889',-0.535,0.095
'17:03.892',-0.545,0.150
'17:03.894',-0.565,0.160
'17:03.897',-0.575,0.080
'17:03.900',-0.565,-0.080
'17:03.903',-0.515,-0.350
'17:03.906',-0.385,-0.710
'17:03.908',-0.185,-1.090
'17:03.911',0.135,-1.430
'17:03.914',0.515,-1.645
'17:03.917',0.985,-1.800
'17:03.919',1.460,-1.860
'17:03.922',1.895,-1.850
'17:03.925',2.235,-1.840
'17:03.928',2.400,-1.825
'17:03.931',2.375,-1.800
'17:03.933',2.185,-1.775
'17:03.936',1.865,-1.740
'17:03.939',1.465,-1.670
'17:03.942',1.020,-1.575
'17:03.944',0.555,-1.415
'17:03.947',0.120,-1.180
'17:03.950',-0.270,-0.935
'17:03.953',-0.630,-0.700
'17:03.956',-0.920,-0.520
'17:03.958',-1.145,-0.395
'17:03.961',-1.220,-0.315
'17:03.964',-1.210,-0.265
'17:03.967',-1.100,-0.235
'17:03.969',-0.965,-0.200
'17:03.972',-0.860,-0.170
'17:03.975',-0.780,-0.155
'17:03.978',-0.755,-0.140
'17:03.981',-0.765,-0.120
'17:03.983',-0.785,-0.110
'17:03.986',-0.810,-0.090
'17:03.989',-0.835,-0.095
'17:03.992',-0.835,-0.070
'17:03.994',-0.825,-0.055
'17:03.997',-0.835,-0.045
'17:04.000',-0.840,-0.035
'17:04.003',-0.855,-0.050
'17:04.006',-0.875,-0.040
'17:04.008',-0.885,-0.030
'17:04.011',-0.885,-0.025
'17:04.014',-0.890,-0.015
'17:04.017',-0.895,-0.005
'17:04.019',-0.880,0.000
'17:04.022',-0.890,0.015
'17:04.025',-0.890,0.030
'17:04.028',-0.900,0.035
'17:04.031',-0.895,0.065
'17:04.033',-0.900,0.055
'17:04.036',-0.895,0.060
'17:04.039',-0.895,0.060
'17:04.042',-0.895,0.065
'17:04.044',-0.895,0.075
'17:04.047',-0.890,0.085
'17:04.050',-0.905,0.085
'17:04.053',-0.890,0.105
'17:04.056',-0.875,0.145
'17:04.058',-0.845,0.155
'17:04.061',-0.820,0.170
'17:04.064',-0.795,0.180
'17:04.067',-0.780,0.175
'17:04.069',-0.800,0.180
'17:04.072',-0.790,0.185
'17:04.075',-0.790,0.190
'17:04.078',-0.785,0.200
'17:04.081',-0.760,0.240
'17:04.083',-0.725,0.260
'17:04.086',-0.690,0.290
'17:04.089',-0.670,0.305
'17:04.092',-0.630,0.320
'17:04.094',-0.600,0.320
'17:04.097',-0.580,0.335
'17:04.100',-0.545,0.325
'17:04.103',-0.530,0.325
'17:04.106',-0.495,0.325
'17:04.108',-0.475,0.335
'17:04.111',-0.460,0.330
'17:04.114',-0.435,0.345
'17:04.117',-0.410,0.355
'17:04.119',-0.380,0.360
'17:04.122',-0.340,0.375
'17:04.125',-0.285,0.380
'17:04.128',-0.255,0.375
'17:04.131',-0.210,0.385
'17:04.133',-0.190,0.375
'17:04.136',-0.165,0.370
'17:04.139',-0.155,0.360
'17:04.142',-0.130,0.335
'17:04.144',-0.105,0.335
'17:04.147',-0.070,0.340
'17:04.150',-0.025,0.345
'17:04.153',0.025,0.340
'17:04.156',0.045,0.320
'17:04.158',0.105,0.320
'17:04.161',0.130,0.280
'17:04.164',0.150,0.260
'17:04.167',0.165,0.230
'17:04.169',0.185,0.215
'17:04.172',0.185,0.195
'17:04.175',0.215,0.185
'17:04.178',0.235,0.185
'17:04.181',0.265,0.170
'17:04.183',0.280,0.155
'17:04.186',0.275,0.155
'17:04.189',0.270,0.135
'17:04.192',0.280,0.135
'17:04.194',0.285,0.120
'17:04.197',0.290,0.115
'17:04.200',0.285,0.105
'17:04.203',0.275,0.085
'17:04.206',0.260,0.070
'17:04.208',0.240,0.050
'17:04.211',0.215,0.050
'17:04.214',0.195,0.035
'17:04.217',0.175,0.040
'17:04.219',0.170,0.045
'17:04.222',0.160,0.075
'17:04.225',0.135,0.090
'17:04.228',0.130,0.070
'17:04.231',0.105,0.065
'17:04.233',0.060,0.035
'17:04.236',0.010,0.035
'17:04.239',-0.050,0.040
'17:04.242',-0.075,0.045
'17:04.244',-0.105,0.070
'17:04.247',-0.120,0.085
'17:04.250',-0.130,0.110
'17:04.253',-0.150,0.120
'17:04.256',-0.175,0.125
'17:04.258',-0.200,0.125
'17:04.261',-0.215,0.125
'17:04.264',-0.240,0.135
'17:04.267',-0.260,0.140
'17:04.269',-0.275,0.135
'17:04.272',-0.295,0.145
'17:04.275',-0.325,0.155
'17:04.278',-0.345,0.160
'17:04.281',-0.370,0.160
'17:04.283',-0.395,0.170
'17:04.286',-0.390,0.180
'17:04.289',-0.390,0.190
'17:04.292',-0.360,0.200
'17:04.294',-0.340,0.230
'17:04.297',-0.325,0.245
'17:04.300',-0.330,0.270
'17:04.303',-0.340,0.290
'17:04.306',-0.355,0.305
'17:04.308',-0.375,0.325
'17:04.311',-0.380,0.345
'17:04.314',-0.370,0.360
'17:04.317',-0.365,0.390
'17:04.319',-0.330,0.400
'17:04.322',-0.300,0.400
'17:04.325',-0.285,0.370
'17:04.328',-0.270,0.330
'17:04.331',-0.245,0.305
'17:04.333',-0.200,0.270
'17:04.336',-0.175,0.250
'17:04.339',-0.140,0.205
'17:04.342',-0.110,0.180
'17:04.344',-0.085,0.155
'17:04.347',-0.070,0.135
'17:04.350',-0.065,0.135
'17:04.353',-0.055,0.125
'17:04.356',-0.055,0.115
'17:04.358',-0.050,0.095
'17:04.361',-0.045,0.075
'17:04.364',-0.040,0.070
'17:04.367',-0.050,0.070
'17:04.369',-0.070,0.055
'17:04.372',-0.110,0.040
'17:04.375',-0.165,0.035
'17:04.378',-0.235,0.015
'17:04.381',-0.285,0.010
'17:04.383',-0.340,0.000
'17:04.386',-0.355,0.000
'17:04.389',-0.380,0.000
'17:04.392',-0.400,-0.015
'17:04.394',-0.400,-0.015
'17:04.397',-0.410,-0.020
'17:04.400',-0.425,-0.025
'17:04.403',-0.425,-0.040
'17:04.406',-0.430,-0.045
'17:04.408',-0.430,-0.060
'17:04.411',-0.430,-0.055
'17:04.414',-0.425,-0.045
'17:04.417',-0.420,-0.025
'17:04.419',-0.425,-0.025
'17:04.422',-0.430,-0.010
'17:04.425',-0.425,-0.020
'17:04.428',-0.430,-0.040
'17:04.431',-0.425,-0.050
'17:04.433',-0.430,-0.060
'17:04.436',-0.420,-0.050
'17:04.439',-0.415,-0.060
'17:04.442',-0.410,-0.065
'17:04.444',-0.415,-0.055
'17:04.447',-0.415,-0.040
'17:04.450',-0.425,-0.005
'17:04.453',-0.430,0.025
'17:04.456',-0.435,0.075
'17:04.458',-0.440,0.130
'17:04.461',-0.450,0.160
'17:04.464',-0.465,0.145
'17:04.467',-0.480,0.060
'17:04.469',-0.475,-0.105
'17:04.472',-0.400,-0.365
'17:04.475',-0.255,-0.725
'17:04.478',-0.030,-1.105
'17:04.481',0.285,-1.460
'17:04.483',0.670,-1.740
'17:04.486',1.115,-1.915
'17:04.489',1.565,-2.030
'17:04.492',1.985,-2.050
'17:04.494',2.300,-2.045
'17:04.497',2.485,-2.010
'17:04.500',2.450,-1.995
'17:04.503',2.250,-1.965
'17:04.506',1.925,-1.930
'17:04.508',1.555,-1.890
'17:04.511',1.130,-1.810
'17:04.514',0.695,-1.670
'17:04.517',0.255,-1.410
'17:04.519',-0.135,-1.065
'17:04.522',-0.480,-0.735
'17:04.525',-0.760,-0.460
'17:04.528',-0.945,-0.290
'17:04.531',-1.005,-0.210
'17:04.533',-0.955,-0.190
'17:04.536',-0.850,-0.200
'17:04.539',-0.725,-0.195
'17:04.542',-0.625,-0.200
'17:04.544',-0.575,-0.185
'17:04.547',-0.565,-0.165
'17:04.550',-0.580,-0.140
'17:04.553',-0.605,-0.135
'17:04.556',-0.645,-0.110
'17:04.558',-0.665,-0.110
'17:04.561',-0.675,-0.100
'17:04.564',-0.690,-0.095
'17:04.567',-0.690,-0.100
'17:04.569',-0.695,-0.090
'17:04.572',-0.685,-0.090
'17:04.575',-0.695,-0.085
'17:04.578',-0.695,-0.070
'17:04.581',-0.705,-0.060
'17:04.583',-0.715,-0.045
'17:04.586',-0.720,-0.030
'17:04.589',-0.740,0.000
'17:04.592',-0.740,0.020
'17:04.594',-0.735,0.015
'17:04.597',-0.730,0.025
'17:04.600',-0.715,0.010
'17:04.603',-0.730,0.010
'17:04.606',-0.745,0.020
'17:04.608',-0.750,0.030
'17:04.611',-0.765,0.065
'17:04.614',-0.760,0.070
'17:04.617',-0.750,0.090
'17:04.619',-0.715,0.100
'17:04.622',-0.705,0.115
'17:04.625',-0.700,0.125
'17:04.628',-0.695,0.145
'17:04.631',-0.685,0.150
'17:04.633',-0.690,0.165
'17:04.636',-0.665,0.170
'17:04.639',-0.660,0.180
'17:04.642',-0.620,0.195
'17:04.644',-0.610,0.200
'17:04.647',-0.570,0.225
'17:04.650',-0.545,0.240
'17:04.653',-0.520,0.255
'17:04.656',-0.495,0.270
'17:04.658',-0.450,0.290
'17:04.661',-0.405,0.285
'17:04.664',-0.350,0.295
'17:04.667',-0.325,0.300
'17:04.669',-0.285,0.300
'17:04.672',-0.250,0.310
'17:04.675',-0.225,0.315
'17:04.678',-0.175,0.330
'17:04.681',-0.120,0.335
'17:04.683',-0.070,0.335
'17:04.686',-0.030,0.355
'17:04.689',0.010,0.345
'17:04.692',0.045,0.340
'17:04.694',0.100,0.345
'17:04.697',0.125,0.350
'17:04.700',0.175,0.340
'17:04.703',0.215,0.340
'17:04.706',0.260,0.330
'17:04.708',0.310,0.320
'17:04.711',0.345,0.310
'17:04.714',0.385,0.285
'17:04.717',0.425,0.275
'17:04.719',0.465,0.275
'17:04.722',0.500,0.275
'17:04.725',0.535,0.260
'17:04.728',0.575,0.240
'17:04.731',0.595,0.220
'17:04.733',0.595,0.210
'17:04.736',0.585,0.175
'17:04.739',0.580,0.160
'17:04.742',0.570,0.135
'17:04.744',0.580,0.150
'17:04.747',0.595,0.145
'17:04.750',0.605,0.150
'17:04.753',0.605,0.130
'17:04.756',0.600,0.115
'17:04.758',0.580,0.090
'17:04.761',0.565,0.065
'17:04.764',0.550,0.055
'17:04.767',0.530,0.040
'17:04.769',0.505,0.025
'17:04.772',0.505,0.015
'17:04.775',0.475,0.010
'17:04.778',0.445,0.005
'17:04.781',0.425,0.005
'17:04.783',0.395,0.000
'17:04.786',0.370,0.015
'17:04.789',0.365,0.020
'17:04.792',0.345,0.040
'17:04.794',0.340,0.025
'17:04.797',0.315,0.030
'17:04.800',0.260,0.015
'17:04.803',0.235,0.015
'17:04.806',0.195,0.015
'17:04.808',0.165,0.025
'17:04.811',0.140,0.040
'17:04.814',0.130,0.050
'17:04.817',0.135,0.065
'17:04.819',0.110,0.085
'17:04.822',0.085,0.095
'17:04.825',0.070,0.110
'17:04.828',0.040,0.100
'17:04.831',0.005,0.100
'17:04.833',-0.010,0.095
'17:04.836',-0.030,0.105
'17:04.839',-0.040,0.095
'17:04.842',-0.050,0.115
'17:04.844',-0.060,0.125
'17:04.847',-0.080,0.125
'17:04.850',-0.105,0.150
'17:04.853',-0.125,0.180
'17:04.856',-0.125,0.225
'17:04.858',-0.115,0.240
'17:04.861',-0.110,0.265
'17:04.864',-0.100,0.300
'17:04.867',-0.095,0.320
'17:04.869',-0.120,0.335
'17:04.872',-0.120,0.320
'17:04.875',-0.135,0.305
'17:04.878',-0.125,0.265
'17:04.881',-0.120,0.250
'17:04.883',-0.070,0.245
'17:04.886',-0.025,0.240
'17:04.889',0.005,0.230
'17:04.892',0.050,0.200
'17:04.894',0.075,0.155
'17:04.897',0.080,0.115
'17:04.900',0.085,0.055
'17:04.903',0.095,0.015
'17:04.906',0.100,-0.010
'17:04.908',0.135,-0.020
'17:04.911',0.160,-0.015
'17:04.914',0.185,-0.005
'17:04.917',0.165,-0.015
'17:04.919',0.155,-0.025
'17:04.922',0.135,-0.035
'17:04.925',0.095,-0.055
'17:04.928',0.060,-0.080
'17:04.931',-0.005,-0.085
'17:04.933',-0.050,-0.090
'17:04.936',-0.120,-0.110
'17:04.939',-0.170,-0.120
'17:04.942',-0.220,-0.130
'17:04.944',-0.230,-0.135
'17:04.947',-0.225,-0.150
'17:04.950',-0.210,-0.140
'17:04.953',-0.180,-0.130
'17:04.956',-0.170,-0.125
'17:04.958',-0.160,-0.135
'17:04.961',-0.170,-0.160
'17:04.964',-0.180,-0.170
'17:04.967',-0.195,-0.200
'17:04.969',-0.220,-0.210
'17:04.972',-0.225,-0.200
'17:04.975',-0.235,-0.185
'17:04.978',-0.240,-0.170
'17:04.981',-0.235,-0.160
'17:04.983',-0.240,-0.145
'17:04.986',-0.245,-0.150
'17:04.989',-0.240,-0.170
'17:04.992',-0.225,-0.160
'17:04.994',-0.215,-0.150
'17:04.997',-0.205,-0.115
'17:05.000',-0.205,-0.100
'17:05.003',-0.220,-0.050
'17:05.006',-0.250,0.000
'17:05.008',-0.285,0.055
'17:05.011',-0.315,0.070
'17:05.014',-0.325,0.020
'17:05.017',-0.310,-0.080
'17:05.019',-0.245,-0.275
'17:05.022',-0.130,-0.545
'17:05.025',0.050,-0.905
'17:05.028',0.285,-1.305
'17:05.031',0.585,-1.650
'17:05.033',0.945,-1.935
'17:05.036',1.340,-2.110
'17:05.039',1.760,-2.225
'17:05.042',2.140,-2.265
'17:05.044',2.365,-2.265
'17:05.047',2.425,-2.245
'17:05.050',2.265,-2.185
'17:05.053',1.945,-2.125
'17:05.056',1.520,-2.060
'17:05.058',1.050,-1.960
'17:05.061',0.585,-1.730
'17:05.064',0.185,-1.395
'17:05.067',-0.170,-1.015
'17:05.069',-0.450,-0.685
'17:05.072',-0.655,-0.490
'17:05.075',-0.760,-0.370
'17:05.078',-0.785,-0.345
'17:05.081',-0.730,-0.345
'17:05.083',-0.625,-0.360
'17:05.086',-0.495,-0.375
'17:05.089',-0.375,-0.350
'17:05.092',-0.310,-0.335
'17:05.094',-0.270,-0.305
'17:05.097',-0.280,-0.270
'17:05.100',-0.310,-0.265
'17:05.103',-0.355,-0.255
'17:05.106',-0.380,-0.270
'17:05.108',-0.390,-0.275
'17:05.111',-0.395,-0.270
'17:05.114',-0.380,-0.265
'17:05.117',-0.370,-0.240
'17:05.119',-0.355,-0.225
'17:05.122',-0.355,-0.205
'17:05.125',-0.345,-0.170
'17:05.128',-0.355,-0.175
'17:05.131',-0.355,-0.185
'17:05.133',-0.350,-0.180
'17:05.136',-0.360,-0.180
'17:05.139',-0.370,-0.170
'17:05.142',-0.370,-0.155
'17:05.144',-0.375,-0.130
'17:05.147',-0.375,-0.115
'17:05.150',-0.370,-0.095
'17:05.153',-0.365,-0.070
'17:05.156',-0.360,-0.060
'17:05.158',-0.345,-0.050
'17:05.161',-0.335,-0.050
'17:05.164',-0.330,-0.045
'17:05.167',-0.325,-0.030
'17:05.169',-0.315,-0.035
'17:05.172',-0.310,-0.035
'17:05.175',-0.300,-0.020
'17:05.178',-0.280,0.020
'17:05.181',-0.260,0.040
'17:05.183',-0.230,0.050
'17:05.186',-0.180,0.075
'17:05.189',-0.165,0.100
'17:05.192',-0.145,0.110
'17:05.194',-0.135,0.130
'17:05.197',-0.125,0.150
'17:05.200',-0.095,0.160
'17:05.203',-0.060,0.165
'17:05.206',-0.040,0.160
'17:05.208',0.005,0.160
'17:05.211',0.035,0.185
'17:05.214',0.075,0.200
'17:05.217',0.105,0.230
'17:05.219',0.135,0.250
'17:05.222',0.170,0.270
'17:05.225',0.225,0.315
'17:05.228',0.260,0.310
'17:05.231',0.305,0.305
'17:05.233',0.355,0.290
'17:05.236',0.385,0.285
'17:05.239',0.415,0.275
'17:05.242',0.440,0.275
'17:05.244',0.470,0.300
'17:05.247',0.495,0.310
'17:05.250',0.550,0.325
'17:05.253',0.595,0.320
'17:05.256',0.630,0.315
'17:05.258',0.665,0.310
'17:05.261',0.695,0.300
'17:05.264',0.720,0.310
'17:05.267',0.735,0.295
'17:05.269',0.755,0.300
'17:05.272',0.790,0.270
'17:05.275',0.825,0.250
'17:05.278',0.845,0.240
'17:05.281',0.870,0.225
'17:05.283',0.875,0.225
'17:05.286',0.875,0.230
'17:05.289',0.865,0.230
'17:05.292',0.870,0.225
'17:05.294',0.885,0.195
'17:05.297',0.900,0.185
'17:05.300',0.910,0.150
'17:05.303',0.915,0.110
'17:05.306',0.910,0.085
'17:05.308',0.900,0.075
'17:05.311',0.885,0.060
'17:05.314',0.850,0.055
'17:05.317',0.845,0.050
'17:05.319',0.825,0.050
'17:05.322',0.820,0.035
'17:05.325',0.790,0.010
'17:05.328',0.765,-0.010
'17:05.331',0.735,-0.015
'17:05.333',0.710,-0.045
'17:05.336',0.680,-0.060
'17:05.339',0.655,-0.075
'17:05.342',0.640,-0.090
'17:05.344',0.620,-0.075
'17:05.347',0.600,-0.100
'17:05.350',0.585,-0.085
'17:05.353',0.550,-0.080
'17:05.356',0.515,-0.055
'17:05.358',0.475,-0.045
'17:05.361',0.440,-0.040
'17:05.364',0.415,-0.040
'17:05.367',0.395,-0.055
'17:05.369',0.370,-0.050
'17:05.372',0.350,-0.040
'17:05.375',0.320,-0.035
'17:05.378',0.275,-0.030
'17:05.381',0.230,-0.020
'17:05.383',0.210,-0.015
'17:05.386',0.185,0.005
'17:05.389',0.180,0.020
'17:05.392',0.160,0.015
'17:05.394',0.125,0.025
'17:05.397',0.090,0.020
'17:05.400',0.040,0.015
'17:05.403',0.000,0.015
'17:05.406',-0.010,0.015
'17:05.408',-0.035,0.010
'17:05.411',-0.035,0.005
'17:05.414',-0.045,0.025
'17:05.417',-0.050,0.025
'17:05.419',-0.055,0.040
'17:05.422',-0.080,0.050
'17:05.425',-0.090,0.070
'17:05.428',-0.085,0.065
'17:05.431',-0.065,0.085
'17:05.433',-0.030,0.085
'17:05.436',-0.005,0.105
'17:05.439',0.005,0.120
'17:05.442',0.005,0.135
'17:05.444',-0.020,0.185
'17:05.447',-0.045,0.195
'17:05.450',-0.055,0.215
'17:05.453',-0.050,0.215
'17:05.456',-0.040,0.195
'17:05.458',-0.005,0.170
'17:05.461',0.035,0.145
'17:05.464',0.075,0.135
'17:05.467',0.105,0.110
'17:05.469',0.120,0.085
'17:05.472',0.135,0.030
'17:05.475',0.155,-0.010
'17:05.478',0.180,-0.025
'17:05.481',0.195,-0.050
'17:05.483',0.235,-0.055
'17:05.486',0.250,-0.060
'17:05.489',0.260,-0.075
'17:05.492',0.260,-0.075
'17:05.494',0.255,-0.080
'17:05.497',0.235,-0.090
'17:05.500',0.205,-0.120
'17:05.503',0.155,-0.145
'17:05.506',0.115,-0.160
'17:05.508',0.065,-0.180
'17:05.511',0.000,-0.180
'17:05.514',-0.055,-0.185
'17:05.517',-0.100,-0.190
'17:05.519',-0.140,-0.195
'17:05.522',-0.155,-0.195
'17:05.525',-0.155,-0.195
'17:05.528',-0.155,-0.170
'17:05.531',-0.150,-0.175
'17:05.533',-0.135,-0.195
'17:05.536',-0.140,-0.195
'17:05.539',-0.140,-0.205
'17:05.542',-0.145,-0.225
'17:05.544',-0.155,-0.230
'17:05.547',-0.150,-0.245
'17:05.550',-0.140,-0.230
'17:05.553',-0.140,-0.225
'17:05.556',-0.130,-0.200
'17:05.558',-0.135,-0.190
'17:05.561',-0.130,-0.200
'17:05.564',-0.140,-0.205
'17:05.567',-0.155,-0.225
'17:05.569',-0.150,-0.240
'17:05.572',-0.145,-0.235
'17:05.575',-0.130,-0.220
'17:05.578',-0.125,-0.185
'17:05.581',-0.130,-0.105
'17:05.583',-0.155,-0.035
'17:05.586',-0.180,0.020
'17:05.589',-0.215,0.030
'17:05.592',-0.225,-0.060
'17:05.594',-0.205,-0.280
'17:05.597',-0.110,-0.600
'17:05.600',0.070,-0.995
'17:05.603',0.315,-1.390
'17:05.606',0.640,-1.705
'17:05.608',1.030,-1.920
'17:05.611',1.470,-2.045
'17:05.614',1.915,-2.065
'17:05.617',2.275,-2.050
'17:05.619',2.480,-2.000
'17:05.622',2.470,-1.945
'17:05.625',2.255,-1.865
'17:05.628',1.880,-1.815
'17:05.631',1.420,-1.735
'17:05.633',0.930,-1.680
'17:05.636',0.460,-1.560
'17:05.639',0.075,-1.375
'17:05.642',-0.200,-1.120
'17:05.644',-0.410,-0.885
'17:05.647',-0.590,-0.700
'17:05.650',-0.745,-0.575
'17:05.653',-0.835,-0.485
'17:05.656',-0.865,-0.430
'17:05.658',-0.795,-0.395
'17:05.661',-0.695,-0.365
'17:05.664',-0.570,-0.325
'17:05.667',-0.460,-0.280
'17:05.669',-0.385,-0.270
'17:05.672',-0.385,-0.250
'17:05.675',-0.400,-0.235
'17:05.678',-0.435,-0.230
'17:05.681',-0.460,-0.240
'17:05.683',-0.465,-0.220
'17:05.686',-0.470,-0.220
'17:05.689',-0.480,-0.200
'17:05.692',-0.480,-0.175
'17:05.694',-0.480,-0.170
'17:05.697',-0.480,-0.150
'17:05.700',-0.485,-0.160
'17:05.703',-0.505,-0.170
'17:05.706',-0.510,-0.160
'17:05.708',-0.510,-0.160
'17:05.711',-0.515,-0.155
'17:05.714',-0.510,-0.145
'17:05.717',-0.505,-0.125
'17:05.719',-0.515,-0.110
'17:05.722',-0.520,-0.080
'17:05.725',-0.515,-0.055
'17:05.728',-0.505,-0.060
'17:05.731',-0.505,-0.050
'17:05.733',-0.475,-0.055
'17:05.736',-0.465,-0.055
'17:05.739',-0.455,-0.035
'17:05.742',-0.470,-0.035
'17:05.744',-0.445,-0.025
'17:05.747',-0.430,-0.010
'17:05.750',-0.415,0.015
'17:05.753',-0.375,0.035
'17:05.756',-0.370,0.075
'17:05.758',-0.350,0.085
'17:05.761',-0.330,0.085
'17:05.764',-0.305,0.100
'17:05.767',-0.290,0.100
'17:05.769',-0.265,0.110
'17:05.772',-0.240,0.115
'17:05.775',-0.200,0.125
'17:05.778',-0.180,0.140
'17:05.781',-0.150,0.155
'17:05.783',-0.135,0.185
'17:05.786',-0.100,0.195
'17:05.789',-0.070,0.210
'17:05.792',-0.035,0.235
'17:05.794',0.005,0.230
'17:05.797',0.035,0.250
'17:05.800',0.065,0.240
'17:05.803',0.080,0.230
'17:05.806',0.095,0.230
'17:05.808',0.115,0.215
'17:05.811',0.120,0.215
'17:05.814',0.165,0.200
'17:05.817',0.220,0.205
'17:05.819',0.275,0.210
'17:05.822',0.300,0.205
'17:05.825',0.335,0.215
'17:05.828',0.345,0.200
'17:05.831',0.365,0.200
'17:05.833',0.405,0.185
'17:05.836',0.450,0.170
'17:05.839',0.495,0.150
'17:05.842',0.530,0.115
'17:05.844',0.545,0.095
'17:05.847',0.570,0.085
'17:05.850',0.570,0.065
'17:05.853',0.570,0.055
'17:05.856',0.575,0.045
'17:05.858',0.590,0.040
'17:05.861',0.610,0.000
'17:05.864',0.630,-0.010
'17:05.867',0.630,-0.030
'17:05.869',0.610,-0.045
'17:05.872',0.605,-0.035
'17:05.875',0.590,-0.035
'17:05.878',0.575,-0.040
'17:05.881',0.565,-0.055
'17:05.883',0.560,-0.080
'17:05.886',0.545,-0.085
'17:05.889',0.505,-0.080
'17:05.892',0.475,-0.070
'17:05.894',0.430,-0.070
'17:05.897',0.405,-0.060
'17:05.900',0.395,-0.075
'17:05.903',0.380,-0.065
'17:05.906',0.380,-0.075
'17:05.908',0.370,-0.090
'17:05.911',0.335,-0.070
'17:05.914',0.290,-0.075
'17:05.917',0.240,-0.055
'17:05.919',0.215,-0.040
'17:05.922',0.185,-0.030
'17:05.925',0.155,-0.005
'17:05.928',0.140,0.000
'17:05.931',0.130,0.020
'17:05.933',0.105,0.030
'17:05.936',0.065,0.025
'17:05.939',0.025,0.030
'17:05.942',-0.015,0.025
'17:05.944',-0.035,0.035
'17:05.947',-0.075,0.030
'17:05.950',-0.095,0.045
'17:05.953',-0.110,0.055
'17:05.956',-0.110,0.085
'17:05.958',-0.130,0.090
'17:05.961',-0.155,0.090
'17:05.964',-0.170,0.095
'17:05.967',-0.180,0.090
'17:05.969',-0.170,0.070
'17:05.972',-0.165,0.065
'17:05.975',-0.180,0.065
'17:05.978',-0.180,0.070
'17:05.981',-0.190,0.075
'17:05.983',-0.190,0.095
'17:05.986',-0.195,0.110
'17:05.989',-0.185,0.135
'17:05.992',-0.160,0.145
'17:05.994',-0.150,0.180
'17:05.997',-0.135,0.210
'17:06.000',-0.140,0.225
'17:06.003',-0.150,0.245
'17:06.006',-0.165,0.250
'17:06.008',-0.160,0.255
'17:06.011',-0.155,0.240
'17:06.014',-0.120,0.235
'17:06.017',-0.080,0.210
'17:06.019',-0.030,0.200
'17:06.022',0.000,0.175
'17:06.025',0.025,0.155
'17:06.028',0.045,0.105
'17:06.031',0.050,0.085
'17:06.033',0.055,0.055
'17:06.036',0.075,0.025
'17:06.039',0.090,0.015
'17:06.042',0.105,-0.005
'17:06.044',0.135,-0.005
'17:06.047',0.130,-0.005
'17:06.050',0.115,-0.015
'17:06.053',0.105,-0.035
'17:06.056',0.085,-0.040
'17:06.058',0.060,-0.060
'17:06.061',0.025,-0.080
'17:06.064',-0.025,-0.065
'17:06.067',-0.095,-0.100
'17:06.069',-0.160,-0.120
'17:06.072',-0.205,-0.155
'17:06.075',-0.250,-0.160
'17:06.078',-0.275,-0.155
'17:06.081',-0.265,-0.140
'17:06.083',-0.255,-0.135
'17:06.086',-0.235,-0.130
'17:06.089',-0.245,-0.115
'17:06.092',-0.235,-0.135
'17:06.094',-0.245,-0.145
'17:06.097',-0.245,-0.155
'17:06.100',-0.265,-0.165
'17:06.103',-0.250,-0.175
'17:06.106',-0.245,-0.170
'17:06.108',-0.240,-0.160
'17:06.111',-0.245,-0.150
'17:06.114',-0.260,-0.150
'17:06.117',-0.265,-0.155
'17:06.119',-0.255,-0.160
'17:06.122',-0.255,-0.160
'17:06.125',-0.230,-0.140
'17:06.128',-0.230,-0.115
'17:06.131',-0.225,-0.090
'17:06.133',-0.240,-0.040
'17:06.136',-0.260,0.025
'17:06.139',-0.290,0.060
'17:06.142',-0.320,0.060
'17:06.144',-0.365,0.000
'17:06.147',-0.355,-0.165
'17:06.150',-0.295,-0.405
'17:06.153',-0.145,-0.735
'17:06.156',0.045,-1.090
'17:06.158',0.325,-1.405
'17:06.161',0.630,-1.655
'17:06.164',0.975,-1.840
'17:06.167',1.360,-1.955
'17:06.169',1.780,-2.005
'17:06.172',2.145,-2.015
'17:06.175',2.405,-1.995
'17:06.178',2.465,-1.960
'17:06.181',2.325,-1.900
'17:06.183',2.025,-1.820
'17:06.186',1.615,-1.770
'17:06.189',1.125,-1.685
'17:06.192',0.665,-1.565
'17:06.194',0.250,-1.350
'17:06.197',-0.095,-1.080
'17:06.200',-0.400,-0.835
'17:06.203',-0.655,-0.635
'17:06.206',-0.845,-0.505
'17:06.208',-0.950,-0.435
'17:06.211',-0.955,-0.395
'17:06.214',-0.865,-0.355
'17:06.217',-0.730,-0.320
'17:06.219',-0.600,-0.280
'17:06.222',-0.500,-0.240
'17:06.225',-0.455,-0.210
'17:06.228',-0.460,-0.210
'17:06.231',-0.485,-0.205
'17:06.233',-0.540,-0.220
'17:06.236',-0.560,-0.215
'17:06.239',-0.570,-0.205
'17:06.242',-0.580,-0.195
'17:06.244',-0.580,-0.175
'17:06.247',-0.580,-0.155
'17:06.250',-0.585,-0.155
'17:06.253',-0.595,-0.130
'17:06.256',-0.605,-0.125
'17:06.258',-0.605,-0.120
'17:06.261',-0.610,-0.115
'17:06.264',-0.595,-0.120
'17:06.267',-0.600,-0.110
'17:06.269',-0.595,-0.100
'17:06.272',-0.610,-0.090
'17:06.275',-0.625,-0.090
'17:06.278',-0.640,-0.080
'17:06.281',-0.640,-0.070
'17:06.283',-0.640,-0.060
'17:06.286',-0.615,-0.050
'17:06.289',-0.615,-0.020
'17:06.292',-0.595,0.010
'17:06.294',-0.590,0.010
'17:06.297',-0.575,0.020
'17:06.300',-0.585,0.035
'17:06.303',-0.570,0.015
'17:06.306',-0.570,0.020
'17:06.308',-0.560,0.005
'17:06.311',-0.540,0.010
'17:06.314',-0.530,0.040
'17:06.317',-0.505,0.070
'17:06.319',-0.505,0.100
'17:06.322',-0.495,0.135
'17:06.325',-0.475,0.155
'17:06.328',-0.440,0.155
'17:06.331',-0.410,0.165
'17:06.333',-0.370,0.160
'17:06.336',-0.345,0.170
'17:06.339',-0.330,0.185
'17:06.342',-0.295,0.195
'17:06.344',-0.285,0.210
'17:06.347',-0.255,0.230
'17:06.350',-0.220,0.235
'17:06.353',-0.175,0.235
'17:06.356',-0.120,0.235
'17:06.358',-0.070,0.250
'17:06.361',-0.030,0.250
'17:06.364',-0.010,0.250
'17:06.367',0.015,0.265
'17:06.369',0.040,0.265
'17:06.372',0.085,0.250
'17:06.375',0.120,0.245
'17:06.378',0.155,0.240
'17:06.381',0.185,0.235
'17:06.383',0.215,0.240
'17:06.386',0.250,0.230
'17:06.389',0.275,0.235
'17:06.392',0.320,0.240
'17:06.394',0.355,0.225
'17:06.397',0.415,0.210
'17:06.400',0.440,0.180
'17:06.403',0.485,0.145
'17:06.406',0.515,0.125
'17:06.408',0.530,0.105
'17:06.411',0.540,0.100
'17:06.414',0.565,0.085
'17:06.417',0.580,0.075
'17:06.419',0.620,0.065
'17:06.422',0.645,0.055
'17:06.425',0.660,0.045
'17:06.428',0.680,0.040
'17:06.431',0.700,0.015
'17:06.433',0.670,0.005
'17:06.436',0.655,-0.015
'17:06.439',0.630,-0.015
'17:06.442',0.620,-0.040
'17:06.444',0.610,-0.055
'17:06.447',0.620,-0.065
'17:06.450',0.640,-0.080
'17:06.453',0.640,-0.075
'17:06.456',0.620,-0.070
'17:06.458',0.605,-0.070
'17:06.461',0.565,-0.080
'17:06.464',0.540,-0.075
'17:06.467',0.525,-0.090
'17:06.469',0.495,-0.080
'17:06.472',0.495,-0.085
'17:06.475',0.480,-0.095
'17:06.478',0.445,-0.095
'17:06.481',0.410,-0.090
'17:06.483',0.375,-0.070
'17:06.486',0.345,-0.035
'17:06.489',0.320,-0.025
'17:06.492',0.305,-0.025
'17:06.494',0.285,-0.035
'17:06.497',0.260,-0.020
'17:06.500',0.225,-0.035
'17:06.503',0.195,-0.030
'17:06.506',0.165,-0.030
'17:06.508',0.130,-0.030
'17:06.511',0.115,-0.005
'17:06.514',0.100,0.010
'17:06.517',0.100,0.020
'17:06.519',0.090,0.030
'17:06.522',0.080,0.030
'17:06.525',0.070,0.050
'17:06.528',0.055,0.040
'17:06.531',0.035,0.050
'17:06.533',0.030,0.060
'17:06.536',0.020,0.080
'17:06.539',0.020,0.100
'17:06.542',0.030,0.125
'17:06.544',0.030,0.145
'17:06.547',0.030,0.180
'17:06.550',0.040,0.205
'17:06.553',0.030,0.230
'17:06.556',0.035,0.260
'17:06.558',0.050,0.280
'17:06.561',0.080,0.265
'17:06.564',0.095,0.245
'17:06.567',0.115,0.210
'17:06.569',0.135,0.165
'17:06.572',0.150,0.130
'17:06.575',0.170,0.095
'17:06.578',0.195,0.090
'17:06.581',0.225,0.070
'17:06.583',0.245,0.055
'17:06.586',0.270,0.025
'17:06.589',0.285,-0.005
'17:06.592',0.300,-0.030
'17:06.594',0.300,-0.065
'17:06.597',0.305,-0.080
'17:06.600',0.300,-0.090
'17:06.603',0.300,-0.080
'17:06.606',0.300,-0.085
'17:06.608',0.285,-0.095
'17:06.611',0.255,-0.115
'17:06.614',0.205,-0.135
'17:06.617',0.145,-0.145
'17:06.619',0.085,-0.160
'17:06.622',0.030,-0.155
'17:06.625',-0.020,-0.155
'17:06.628',-0.025,-0.155
'17:06.631',-0.055,-0.155
'17:06.633',-0.075,-0.160
'17:06.636',-0.085,-0.175
'17:06.639',-0.105,-0.190
'17:06.642',-0.110,-0.200
'17:06.644',-0.120,-0.200
'17:06.647',-0.115,-0.200
'17:06.650',-0.105,-0.190
'17:06.653',-0.085,-0.190
'17:06.656',-0.070,-0.175
'17:06.658',-0.075,-0.185
'17:06.661',-0.080,-0.190
'17:06.664',-0.095,-0.200
'17:06.667',-0.110,-0.200
'17:06.669',-0.110,-0.215
'17:06.672',-0.090,-0.205
'17:06.675',-0.085,-0.195
'17:06.678',-0.095,-0.175
'17:06.681',-0.110,-0.160
'17:06.683',-0.115,-0.130
'17:06.686',-0.125,-0.080
'17:06.689',-0.130,-0.015
'17:06.692',-0.135,0.040
'17:06.694',-0.150,0.060
'17:06.697',-0.160,0.005
'17:06.700',-0.150,-0.130
'17:06.703',-0.115,-0.370
'17:06.706',-0.005,-0.695
'17:06.708',0.165,-1.075
'17:06.711',0.440,-1.455
'17:06.714',0.780,-1.770
'17:06.717',1.195,-2.000
'17:06.719',1.650,-2.130
'17:06.722',2.060,-2.180
'17:06.725',2.415,-2.170
'17:06.728',2.560,-2.135
'17:06.731',2.505,-2.085
'17:06.733',2.275,-2.040
'17:06.736',1.910,-1.985
'17:06.739',1.475,-1.915
'17:06.742',0.990,-1.755
'17:06.744',0.530,-1.470
'17:06.747',0.115,-1.115
'17:06.750',-0.250,-0.775
'17:06.753',-0.530,-0.540
'17:06.756',-0.690,-0.390
'17:06.758',-0.725,-0.320
'17:06.761',-0.640,-0.315
'17:06.764',-0.515,-0.325
'17:06.767',-0.395,-0.335
'17:06.769',-0.280,-0.320
'17:06.772',-0.235,-0.325
'17:06.775',-0.245,-0.315
'17:06.778',-0.275,-0.300
'17:06.781',-0.305,-0.285
'17:06.783',-0.335,-0.260
'17:06.786',-0.345,-0.235
'17:06.789',-0.350,-0.220
'17:06.792',-0.350,-0.205
'17:06.794',-0.360,-0.205
'17:06.797',-0.360,-0.225
'17:06.800',-0.365,-0.225
'17:06.803',-0.370,-0.230
'17:06.806',-0.385,-0.220
'17:06.808',-0.390,-0.205
'17:06.811',-0.400,-0.165
'17:06.814',-0.410,-0.150
'17:06.817',-0.425,-0.130
'17:06.819',-0.440,-0.120
'17:06.822',-0.445,-0.105
'17:06.825',-0.430,-0.105
'17:06.828',-0.415,-0.100
'17:06.831',-0.405,-0.090
'17:06.833',-0.405,-0.070
'17:06.836',-0.415,-0.060
'17:06.839',-0.445,-0.070
'17:06.842',-0.435,-0.065
'17:06.844',-0.440,-0.050
'17:06.847',-0.430,-0.040
'17:06.850',-0.425,-0.020
'17:06.853',-0.400,0.000
'17:06.856',-0.385,0.020
'17:06.858',-0.370,0.045
'17:06.861',-0.370,0.050
'17:06.864',-0.360,0.065
'17:06.867',-0.345,0.070
'17:06.869',-0.315,0.080
'17:06.872',-0.290,0.105
'17:06.875',-0.265,0.105
'17:06.878',-0.250,0.125
'17:06.881',-0.225,0.140
'17:06.883',-0.195,0.160
'17:06.886',-0.165,0.180
'17:06.889',-0.135,0.175
'17:06.892',-0.085,0.195
'17:06.894',-0.045,0.205
'17:06.897',-0.005,0.215
'17:06.900',0.040,0.225
'17:06.903',0.075,0.245
'17:06.906',0.110,0.240
'17:06.908',0.140,0.240
'17:06.911',0.190,0.230
'17:06.914',0.240,0.235
'17:06.917',0.290,0.245
'17:06.919',0.370,0.245
'17:06.922',0.415,0.265
'17:06.925',0.455,0.280
'17:06.928',0.505,0.270
'17:06.931',0.545,0.265
'17:06.933',0.590,0.250
'17:06.936',0.625,0.245
'17:06.939',0.675,0.225
'17:06.942',0.705,0.205
'17:06.944',0.740,0.210
'17:06.947',0.765,0.210
'17:06.950',0.790,0.185
'17:06.953',0.825,0.180
'17:06.956',0.850,0.150
'17:06.958',0.880,0.135
'17:06.961',0.920,0.115
'17:06.964',0.930,0.095
'17:06.967',0.930,0.090
'17:06.969',0.925,0.085
'17:06.972',0.925,0.055
'17:06.975',0.915,0.045
'17:06.978',0.930,0.015
'17:06.981',0.925,0.000
'17:06.983',0.930,-0.010
'17:06.986',0.925,-0.005
'17:06.989',0.905,-0.010
'17:06.992',0.880,-0.005
'17:06.994',0.880,-0.015
'17:06.997',0.865,-0.040
'17:07.000',0.855,-0.065
'17:07.003',0.830,-0.075
'17:07.006',0.825,-0.100
'17:07.008',0.795,-0.100
'17:07.011',0.765,-0.115
'17:07.014',0.735,-0.085
'17:07.017',0.700,-0.085
'17:07.019',0.670,-0.075
'17:07.022',0.670,-0.080
'17:07.025',0.660,-0.080
'17:07.028',0.640,-0.070
'17:07.031',0.615,-0.075
'17:07.033',0.580,-0.055
'17:07.036',0.540,-0.055
'17:07.039',0.505,-0.050
'17:07.042',0.480,-0.040
'17:07.044',0.450,-0.040
'17:07.047',0.415,-0.030
'17:07.050',0.395,-0.020
'17:07.053',0.375,-0.020
'17:07.056',0.360,-0.005
'17:07.058',0.335,0.025
'17:07.061',0.325,0.025
'17:07.064',0.315,0.065
'17:07.067',0.295,0.055
'17:07.069',0.280,0.035
'17:07.072',0.260,0.025
'17:07.075',0.245,0.015
'17:07.078',0.220,0.015
'17:07.081',0.210,0.060
'17:07.083',0.200,0.105
'17:07.086',0.200,0.140
'17:07.089',0.195,0.165
'17:07.092',0.195,0.190
'17:07.094',0.215,0.205
'17:07.097',0.200,0.225
'17:07.100',0.185,0.215
'17:07.103',0.175,0.190
'17:07.106',0.185,0.160
'17:07.108',0.205,0.130
'17:07.111',0.235,0.110
'17:07.114',0.285,0.095
'17:07.117',0.325,0.065
'17:07.119',0.360,0.035
'17:07.122',0.375,0.015
'17:07.125',0.375,-0.015
'17:07.128',0.380,-0.050
'17:07.131',0.405,-0.070
'17:07.133',0.415,-0.105
'17:07.136',0.450,-0.120
'17:07.139',0.475,-0.130
'17:07.142',0.480,-0.145
'17:07.144',0.480,-0.145
'17:07.147',0.455,-0.155
'17:07.150',0.425,-0.165
'17:07.153',0.375,-0.155
'17:07.156',0.330,-0.170
'17:07.158',0.285,-0.175
'17:07.161',0.225,-0.200
'17:07.164',0.180,-0.210
'17:07.167',0.130,-0.215
'17:07.169',0.090,-0.220
'17:07.172',0.055,-0.210
'17:07.175',0.045,-0.210
'17:07.178',0.045,-0.215
'17:07.181',0.070,-0.225
'17:07.183',0.075,-0.245
'17:07.186',0.085,-0.245
'17:07.189',0.075,-0.255
'17:07.192',0.060,-0.255
'17:07.194',0.055,-0.260
'17:07.197',0.060,-0.255
'17:07.200',0.055,-0.260
'17:07.203',0.065,-0.255
'17:07.206',0.065,-0.255
'17:07.208',0.065,-0.255
'17:07.211',0.050,-0.280
'17:07.214',0.040,-0.270
'17:07.217',0.045,-0.260
'17:07.219',0.050,-0.225
'17:07.222',0.050,-0.200
'17:07.225',0.065,-0.145
'17:07.228',0.080,-0.085
'17:07.231',0.060,-0.035
'17:07.233',0.045,-0.005
'17:07.236',-0.005,0.000
'17:07.239',-0.045,-0.055
'17:07.242',-0.070,-0.200
'17:07.244',-0.025,-0.425
'17:07.247',0.095,-0.745
'17:07.250',0.310,-1.115
'17:07.253',0.570,-1.485
'17:07.256',0.895,-1.815
'17:07.258',1.275,-2.060
'17:07.261',1.700,-2.220
'17:07.264',2.105,-2.305
'17:07.267',2.425,-2.320
'17:07.269',2.600,-2.310
'17:07.272',2.560,-2.275
'17:07.275',2.345,-2.235
'17:07.278',1.970,-2.170
'17:07.281',1.515,-2.065
'17:07.283',1.035,-1.860
'17:07.286',0.590,-1.550
'17:07.289',0.210,-1.165
'17:07.292',-0.095,-0.795
'17:07.294',-0.335,-0.530
'17:07.297',-0.485,-0.390
'17:07.300',-0.530,-0.355
'17:07.303',-0.480,-0.390
'17:07.306',-0.375,-0.425
'17:07.308',-0.245,-0.440
'17:07.311',-0.130,-0.425
'17:07.314',-0.040,-0.405
'17:07.317',0.000,-0.370
'17:07.319',0.000,-0.335
'17:07.322',-0.025,-0.325
'17:07.325',-0.065,-0.310
'17:07.328',-0.090,-0.320
'17:07.331',-0.100,-0.310
'17:07.333',-0.100,-0.305
'17:07.336',-0.085,-0.310
'17:07.339',-0.075,-0.305
'17:07.342',-0.080,-0.290
'17:07.344',-0.105,-0.280
'17:07.347',-0.130,-0.270
'17:07.350',-0.135,-0.255
'17:07.353',-0.125,-0.245
'17:07.356',-0.115,-0.220
'17:07.358',-0.080,-0.200
'17:07.361',-0.055,-0.200
'17:07.364',-0.060,-0.200
'17:07.367',-0.075,-0.205
'17:07.369',-0.090,-0.185
'17:07.372',-0.095,-0.175
'17:07.375',-0.110,-0.170
'17:07.378',-0.110,-0.155
'17:07.381',-0.080,-0.140
'17:07.383',-0.065,-0.120
'17:07.386',-0.035,-0.100
'17:07.389',-0.020,-0.080
'17:07.392',-0.010,-0.070
'17:07.394',0.005,-0.055
'17:07.397',0.015,-0.045
'17:07.400',0.030,-0.030
'17:07.403',0.050,-0.005
'17:07.406',0.075,0.015
'17:07.408',0.105,0.020
'17:07.411',0.120,0.020
'17:07.414',0.135,0.045
'17:07.417',0.175,0.050
'17:07.419',0.210,0.055
'17:07.422',0.240,0.085
'17:07.425',0.295,0.125
'17:07.428',0.340,0.130
'17:07.431',0.375,0.140
'17:07.433',0.415,0.165
'17:07.436',0.415,0.170
'17:07.439',0.440,0.155
'17:07.442',0.460,0.155
'17:07.444',0.495,0.155
'17:07.447',0.540,0.170
'17:07.450',0.590,0.195
'17:07.453',0.635,0.210
'17:07.456',0.680,0.220
'17:07.458',0.710,0.240
'17:07.461',0.735,0.230
'17:07.464',0.770,0.220
'17:07.467',0.795,0.210
'17:07.469',0.830,0.210
'17:07.472',0.865,0.200
'17:07.475',0.885,0.215
'17:07.478',0.910,0.205
'17:07.481',0.935,0.200
'17:07.483',0.965,0.190
'17:07.486',0.995,0.185
'17:07.489',1.025,0.170
'17:07.492',1.060,0.160
'17:07.494',1.100,0.135
'17:07.497',1.115,0.130
'17:07.500',1.120,0.125
'17:07.503',1.110,0.120
'17:07.506',1.095,0.085
'17:07.508',1.080,0.075
'17:07.511',1.085,0.045
'17:07.514',1.095,0.020
'17:07.517',1.105,-0.005
'17:07.519',1.110,0.000
'17:07.522',1.130,-0.005
'17:07.525',1.095,0.005
'17:07.528',1.090,-0.010
'17:07.531',1.070,-0.020
'17:07.533',1.030,-0.055
'17:07.536',1.020,-0.080
'17:07.539',1.005,-0.130
'17:07.542',0.990,-0.150
'17:07.544',0.970,-0.155
'17:07.547',0.935,-0.155
'17:07.550',0.910,-0.145
'17:07.553',0.875,-0.150
'17:07.556',0.845,-0.155
'17:07.558',0.835,-0.180
'17:07.561',0.810,-0.190
'17:07.564',0.795,-0.180
'17:07.567',0.765,-0.175
'17:07.569',0.730,-0.175
'17:07.572',0.680,-0.180
'17:07.575',0.645,-0.160
'17:07.578',0.615,-0.150
'17:07.581',0.590,-0.155
'17:07.583',0.560,-0.140
'17:07.586',0.550,-0.135
'17:07.589',0.530,-0.120
'17:07.592',0.495,-0.105
'17:07.594',0.455,-0.085
'17:07.597',0.415,-0.090
'17:07.600',0.375,-0.095
'17:07.603',0.340,-0.105
'17:07.606',0.300,-0.100
'17:07.608',0.270,-0.095
'17:07.611',0.230,-0.085
'17:07.614',0.180,-0.090
'17:07.617',0.145,-0.070
'17:07.619',0.125,-0.050
'17:07.622',0.115,-0.035
'17:07.625',0.110,-0.025
'17:07.628',0.115,-0.030
'17:07.631',0.110,-0.040
'17:07.633',0.095,-0.035
'17:07.636',0.075,-0.050
'17:07.639',0.065,-0.035
'17:07.642',0.060,-0.025
'17:07.644',0.035,0.000
'17:07.647',0.050,0.015
'17:07.650',0.045,0.040
'17:07.653',0.075,0.060
'17:07.656',0.095,0.090
'17:07.658',0.095,0.120
'17:07.661',0.115,0.125
'17:07.664',0.110,0.110
'17:07.667',0.120,0.090
'17:07.669',0.150,0.070
'17:07.672',0.175,0.050
'17:07.675',0.205,0.030
'17:07.678',0.230,0.020
'17:07.681',0.255,-0.005
'17:07.683',0.265,-0.020
'17:07.686',0.280,-0.045
'17:07.689',0.305,-0.090
'17:07.692',0.335,-0.100
'17:07.694',0.365,-0.120
'17:07.697',0.390,-0.150
'17:07.700',0.405,-0.165
'17:07.703',0.375,-0.175
'17:07.706',0.355,-0.185
'17:07.708',0.335,-0.205
'17:07.711',0.300,-0.205
'17:07.714',0.265,-0.215
'17:07.717',0.225,-0.230
'17:07.719',0.175,-0.235
'17:07.722',0.130,-0.245
'17:07.725',0.080,-0.245
'17:07.728',0.045,-0.255
'17:07.731',0.000,-0.265
'17:07.733',-0.030,-0.270
'17:07.736',-0.050,-0.265
'17:07.739',-0.060,-0.275
'17:07.742',-0.055,-0.275
'17:07.744',-0.050,-0.285
'17:07.747',-0.055,-0.305
'17:07.750',-0.055,-0.300
'17:07.753',-0.050,-0.285
'17:07.756',-0.055,-0.290
'17:07.758',-0.050,-0.275
'17:07.761',-0.070,-0.280
'17:07.764',-0.045,-0.300
'17:07.767',-0.040,-0.310
'17:07.769',-0.045,-0.320
'17:07.772',-0.050,-0.320
'17:07.775',-0.065,-0.325
'17:07.778',-0.075,-0.305
'17:07.781',-0.085,-0.290
'17:07.783',-0.085,-0.285
'17:07.786',-0.060,-0.265
'17:07.789',-0.050,-0.220
'17:07.792',-0.040,-0.165
'17:07.794',-0.055,-0.105
'17:07.797',-0.080,-0.085
'17:07.800',-0.115,-0.115
'17:07.803',-0.135,-0.245
'17:07.806',-0.105,-0.470
'17:07.808',-0.025,-0.800
'17:07.811',0.150,-1.175
'17:07.814',0.415,-1.535
'17:07.817',0.735,-1.790
'17:07.819',1.115,-1.955
'17:07.822',1.525,-2.050
'17:07.825',1.925,-2.080
'17:07.828',2.275,-2.065
'17:07.831',2.500,-2.040
'17:07.833',2.575,-2.005
'17:07.836',2.480,-1.965
'17:07.839',2.220,-1.925
'17:07.842',1.855,-1.865
'17:07.844',1.440,-1.785
'17:07.847',1.010,-1.660
'17:07.850',0.595,-1.470
'17:07.853',0.210,-1.225
'17:07.856',-0.130,-0.985
'17:07.858',-0.405,-0.800
'17:07.861',-0.650,-0.695
'17:07.864',-0.810,-0.625
'17:07.867',-0.875,-0.560
'17:07.869',-0.845,-0.515
'17:07.872',-0.765,-0.485
'17:07.875',-0.640,-0.450
'17:07.878',-0.525,-0.430
'17:07.881',-0.440,-0.390
'17:07.883',-0.390,-0.355
'17:07.886',-0.375,-0.345
'17:07.889',-0.375,-0.335
'17:07.892',-0.395,-0.320
'17:07.894',-0.420,-0.315
'17:07.897',-0.420,-0.290
'17:07.900',-0.440,-0.290
'17:07.903',-0.455,-0.285
'17:07.906',-0.470,-0.265
'17:07.908',-0.485,-0.265
'17:07.911',-0.500,-0.270
'17:07.914',-0.520,-0.265
'17:07.917',-0.525,-0.270
'17:07.919',-0.520,-0.270
'17:07.922',-0.510,-0.265
'17:07.925',-0.495,-0.230
'17:07.928',-0.490,-0.210
'17:07.931',-0.455,-0.210
'17:07.933',-0.465,-0.210
'17:07.936',-0.475,-0.205
'17:07.939',-0.495,-0.200
'17:07.942',-0.525,-0.190
'17:07.944',-0.530,-0.190
'17:07.947',-0.520,-0.165
'17:07.950',-0.505,-0.155
'17:07.953',-0.480,-0.120
'17:07.956',-0.475,-0.100
'17:07.958',-0.445,-0.085
'17:07.961',-0.440,-0.080
'17:07.964',-0.425,-0.095
'17:07.967',-0.405,-0.100
'17:07.969',-0.390,-0.090
'17:07.972',-0.360,-0.100
'17:07.975',-0.340,-0.080
'17:07.978',-0.320,-0.060
'17:07.981',-0.320,-0.030
'17:07.983',-0.310,-0.010
'17:07.986',-0.310,0.010
'17:07.989',-0.320,0.015
'17:07.992',-0.295,0.035
'17:07.994',-0.260,0.045
'17:07.997',-0.220,0.075
'17:08.000',-0.185,0.080
'17:08.003',-0.165,0.095
'17:08.006',-0.135,0.100
'17:08.008',-0.125,0.095
'17:08.011',-0.105,0.095
'17:08.014',-0.085,0.085
'17:08.017',-0.060,0.105
'17:08.019',-0.010,0.105
'17:08.022',0.010,0.115
'17:08.025',0.040,0.150
'17:08.028',0.070,0.150
'17:08.031',0.080,0.145
'17:08.033',0.110,0.145
'17:08.036',0.115,0.130
'17:08.039',0.135,0.125
'17:08.042',0.175,0.110
'17:08.044',0.215,0.105
'17:08.047',0.255,0.100
'17:08.050',0.300,0.100
'17:08.053',0.330,0.090
'17:08.056',0.350,0.080
'17:08.058',0.370,0.070
'17:08.061',0.405,0.070
'17:08.064',0.435,0.035
'17:08.067',0.465,0.030
'17:08.069',0.480,0.010
'17:08.072',0.490,-0.015
'17:08.075',0.500,-0.020
'17:08.078',0.515,-0.055
'17:08.081',0.520,-0.065
'17:08.083',0.540,-0.090
'17:08.086',0.555,-0.110
'17:08.089',0.570,-0.120
'17:08.092',0.585,-0.120
'17:08.094',0.600,-0.120
'17:08.097',0.590,-0.125
'17:08.100',0.580,-0.125
'17:08.103',0.550,-0.145
'17:08.106',0.520,-0.150
'17:08.108',0.505,-0.170
'17:08.111',0.495,-0.170
'17:08.114',0.490,-0.175
'17:08.117',0.490,-0.180
'17:08.119',0.475,-0.155
'17:08.122',0.465,-0.130
'17:08.125',0.435,-0.125
'17:08.128',0.410,-0.130
'17:08.131',0.385,-0.135
'17:08.133',0.345,-0.160
'17:08.136',0.320,-0.180
'17:08.139',0.295,-0.180
'17:08.142',0.275,-0.180
'17:08.144',0.260,-0.160
'17:08.147',0.215,-0.130
'17:08.150',0.180,-0.105
'17:08.153',0.160,-0.100
'17:08.156',0.120,-0.095
'17:08.158',0.085,-0.090
'17:08.161',0.070,-0.085
'17:08.164',0.045,-0.085
'17:08.167',0.025,-0.070
'17:08.169',-0.010,-0.065
'17:08.172',-0.045,-0.050
'17:08.175',-0.095,-0.050
'17:08.178',-0.125,-0.030
'17:08.181',-0.160,-0.020
'17:08.183',-0.170,0.000
'17:08.186',-0.180,0.000
'17:08.189',-0.180,-0.010
'17:08.192',-0.195,-0.015
'17:08.194',-0.235,-0.015
'17:08.197',-0.245,0.000
'17:08.200',-0.265,-0.005
'17:08.203',-0.285,0.000
'17:08.206',-0.280,-0.005
'17:08.208',-0.295,-0.020
'17:08.211',-0.285,-0.020
'17:08.214',-0.280,-0.005
'17:08.217',-0.270,0.025
'17:08.219',-0.275,0.055
'17:08.222',-0.270,0.065
'17:08.225',-0.270,0.080
'17:08.228',-0.270,0.095
'17:08.231',-0.255,0.110
'17:08.233',-0.255,0.125
'17:08.236',-0.265,0.140
'17:08.239',-0.275,0.175
'17:08.242',-0.280,0.180
'17:08.244',-0.280,0.175
'17:08.247',-0.270,0.175
'17:08.250',-0.235,0.160
'17:08.253',-0.190,0.135
'17:08.256',-0.155,0.120
'17:08.258',-0.110,0.095
'17:08.261',-0.080,0.080
'17:08.264',-0.065,0.060
'17:08.267',-0.060,0.040
'17:08.269',-0.060,0.010
'17:08.272',-0.055,-0.035
'17:08.275',-0.045,-0.050
'17:08.278',-0.025,-0.080
'17:08.281',0.000,-0.080
'17:08.283',0.015,-0.080
'17:08.286',0.020,-0.070
'17:08.289',0.005,-0.075
'17:08.292',0.000,-0.100
'17:08.294',-0.030,-0.125
'17:08.297',-0.075,-0.145
'17:08.300',-0.125,-0.150
'17:08.303',-0.185,-0.165
'17:08.306',-0.255,-0.185
'17:08.308',-0.300,-0.200
'17:08.311',-0.355,-0.215
'17:08.314',-0.390,-0.215
'17:08.317',-0.385,-0.220
'17:08.319',-0.380,-0.210
'17:08.322',-0.375,-0.205
'17:08.325',-0.355,-0.200
'17:08.328',-0.345,-0.215
'17:08.331',-0.350,-0.200
'17:08.333',-0.365,-0.205
'17:08.336',-0.370,-0.215
'17:08.339',-0.400,-0.215
'17:08.342',-0.405,-0.235
'17:08.344',-0.410,-0.235
'17:08.347',-0.405,-0.240
'17:08.350',-0.395,-0.230
'17:08.353',-0.400,-0.225
'17:08.356',-0.385,-0.215
'17:08.358',-0.375,-0.210
'17:08.361',-0.385,-0.205
'17:08.364',-0.395,-0.200
'17:08.367',-0.390,-0.175
'17:08.369',-0.395,-0.170
'17:08.372',-0.390,-0.155
'17:08.375',-0.395,-0.135
'17:08.378',-0.410,-0.110
'17:08.381',-0.445,-0.050
'17:08.383',-0.465,0.000
'17:08.386',-0.495,-0.005
'17:08.389',-0.500,-0.095
'17:08.392',-0.490,-0.280
'17:08.394',-0.425,-0.570
'17:08.397',-0.280,-0.935
'17:08.400',-0.055,-1.300
'17:08.403',0.215,-1.600
'17:08.406',0.560,-1.820
'17:08.408',0.950,-1.955
'17:08.411',1.360,-2.000
'17:08.414',1.770,-1.985
'17:08.417',2.105,-1.975
'17:08.419',2.305,-1.975
'17:08.422',2.330,-1.965
'17:08.425',2.195,-1.940
'17:08.428',1.935,-1.890
'17:08.431',1.600,-1.835
'17:08.433',1.230,-1.750
'17:08.436',0.820,-1.630
'17:08.439',0.425,-1.460
'17:08.442',0.045,-1.225
'17:08.444',-0.300,-0.985
'17:08.447',-0.615,-0.770
'17:08.450',-0.895,-0.620
'17:08.453',-1.090,-0.505
'17:08.456',-1.190,-0.435
'17:08.458',-1.165,-0.400
'17:08.461',-1.055,-0.355
'17:08.464',-0.925,-0.345
'17:08.467',-0.800,-0.320
'17:08.469',-0.710,-0.300
'17:08.472',-0.660,-0.295
'17:08.475',-0.675,-0.280
'17:08.478',-0.710,-0.280
'17:08.481',-0.750,-0.270
'17:08.483',-0.790,-0.250
'17:08.486',-0.805,-0.225
'17:08.489',-0.810,-0.220
'17:08.492',-0.790,-0.185
'17:08.494',-0.785,-0.185
'17:08.497',-0.770,-0.175
'17:08.500',-0.775,-0.180
'17:08.503',-0.790,-0.180
'17:08.506',-0.805,-0.180
'17:08.508',-0.830,-0.180
'17:08.511',-0.840,-0.165
'17:08.514',-0.850,-0.155
'17:08.517',-0.850,-0.140
'17:08.519',-0.840,-0.120
'17:08.522',-0.845,-0.105
'17:08.525',-0.835,-0.100
'17:08.528',-0.845,-0.085
'17:08.531',-0.850,-0.085
'17:08.533',-0.850,-0.070
'17:08.536',-0.860,-0.070
'17:08.539',-0.860,-0.055
'17:08.542',-0.855,-0.035
'17:08.544',-0.855,-0.030
'17:08.547',-0.850,-0.035
'17:08.550',-0.845,-0.025
'17:08.553',-0.850,-0.025
'17:08.556',-0.835,-0.015
'17:08.558',-0.820,0.005
'17:08.561',-0.815,0.020
'17:08.564',-0.790,0.040
'17:08.567',-0.760,0.040
'17:08.569',-0.750,0.030
'17:08.572',-0.750,0.035
'17:08.575',-0.760,0.045
'17:08.578',-0.750,0.045
'17:08.581',-0.750,0.065
'17:08.583',-0.730,0.095
'17:08.586',-0.705,0.120
'17:08.589',-0.655,0.150
'17:08.592',-0.625,0.160
'17:08.594',-0.595,0.170
'17:08.597',-0.570,0.190
'17:08.600',-0.545,0.190
'17:08.603',-0.520,0.190
'17:08.606',-0.495,0.195
'17:08.608',-0.455,0.205
'17:08.611',-0.420,0.210
'17:08.614',-0.380,0.225
'17:08.617',-0.330,0.220
'17:08.619',-0.295,0.225
'17:08.622',-0.255,0.220
'17:08.625',-0.200,0.230
'17:08.628',-0.165,0.235
'17:08.631',-0.125,0.230
'17:08.633',-0.080,0.230
'17:08.636',-0.055,0.225
'17:08.639',-0.025,0.205
'17:08.642',0.015,0.195
'17:08.644',0.040,0.160
'17:08.647',0.065,0.150
'17:08.650',0.100,0.135
'17:08.653',0.160,0.135
'17:08.656',0.190,0.125
'17:08.658',0.255,0.120
'17:08.661',0.295,0.100
'17:08.664',0.330,0.085
'17:08.667',0.340,0.055
'17:08.669',0.350,0.025
'17:08.672',0.365,0.005
'17:08.675',0.370,-0.010
'17:08.678',0.380,-0.005
'17:08.681',0.390,0.005
'17:08.683',0.395,-0.010
'17:08.686',0.400,-0.015
'17:08.689',0.390,-0.030
'17:08.692',0.395,-0.060
'17:08.694',0.380,-0.085
'17:08.697',0.375,-0.105
'17:08.700',0.370,-0.105
'17:08.703',0.350,-0.110
'17:08.706',0.340,-0.110
'17:08.708',0.315,-0.110
'17:08.711',0.295,-0.130
'17:08.714',0.280,-0.130
'17:08.717',0.245,-0.140
'17:08.719',0.240,-0.130
'17:08.722',0.225,-0.120
'17:08.725',0.210,-0.110
'17:08.728',0.185,-0.080
'17:08.731',0.155,-0.075
'17:08.733',0.120,-0.075
'17:08.736',0.065,-0.080
'17:08.739',0.030,-0.085
'17:08.742',0.010,-0.090
'17:08.744',-0.025,-0.095
'17:08.747',-0.035,-0.085
'17:08.750',-0.060,-0.070
'17:08.753',-0.070,-0.050
'17:08.756',-0.085,-0.025
'17:08.758',-0.100,-0.010
'17:08.761',-0.125,0.000
'17:08.764',-0.145,-0.005
'17:08.767',-0.165,0.000
'17:08.769',-0.185,-0.005
'17:08.772',-0.195,-0.010
'17:08.775',-0.205,0.005
'17:08.778',-0.230,0.010
'17:08.781',-0.245,0.035
'17:08.783',-0.250,0.045
'17:08.786',-0.240,0.070
'17:08.789',-0.235,0.100
'17:08.792',-0.230,0.135
'17:08.794',-0.220,0.150
'17:08.797',-0.215,0.185
'17:08.800',-0.230,0.210
'17:08.803',-0.230,0.230
'17:08.806',-0.240,0.235
'17:08.808',-0.235,0.220
'17:08.811',-0.205,0.200
'17:08.814',-0.210,0.180
'17:08.817',-0.155,0.150
'17:08.819',-0.130,0.140
'17:08.822',-0.110,0.120
'17:08.825',-0.075,0.105
'17:08.828',-0.045,0.070
'17:08.831',-0.020,0.025
'17:08.833',-0.010,-0.005
'17:08.836',0.005,-0.045
'17:08.839',0.020,-0.075
'17:08.842',0.035,-0.100
'17:08.844',0.035,-0.105
'17:08.847',0.025,-0.090
'17:08.850',0.030,-0.085
'17:08.853',0.030,-0.095
'17:08.856',0.030,-0.105
'17:08.858',0.015,-0.110
'17:08.861',-0.025,-0.115
'17:08.864',-0.085,-0.130
'17:08.867',-0.150,-0.130
'17:08.869',-0.225,-0.150
'17:08.872',-0.290,-0.160
'17:08.875',-0.320,-0.190
'17:08.878',-0.345,-0.195
'17:08.881',-0.365,-0.205
'17:08.883',-0.365,-0.210
'17:08.886',-0.365,-0.200
'17:08.889',-0.350,-0.190
'17:08.892',-0.345,-0.180
'17:08.894',-0.335,-0.190
'17:08.897',-0.345,-0.190
'17:08.900',-0.355,-0.200
'17:08.903',-0.360,-0.215
'17:08.906',-0.370,-0.225
'17:08.908',-0.380,-0.235
'17:08.911',-0.395,-0.235
'17:08.914',-0.400,-0.210
'17:08.917',-0.405,-0.200
'17:08.919',-0.395,-0.190
'17:08.922',-0.390,-0.190
'17:08.925',-0.360,-0.185
'17:08.928',-0.355,-0.180
'17:08.931',-0.360,-0.155
'17:08.933',-0.370,-0.105
'17:08.936',-0.405,-0.055
'17:08.939',-0.430,-0.005
'17:08.942',-0.430,0.035
'17:08.944',-0.475,0.030
'17:08.947',-0.485,-0.020
'17:08.950',-0.480,-0.135
'17:08.953',-0.440,-0.330
'17:08.956',-0.360,-0.625
'17:08.958',-0.200,-0.975
'17:08.961',0.025,-1.330
'17:08.964',0.315,-1.655
'17:08.967',0.680,-1.910
'17:08.969',1.085,-2.090
'17:08.972',1.500,-2.165
'17:08.975',1.890,-2.185
'17:08.978',2.145,-2.175
'17:08.981',2.235,-2.120
'17:08.983',2.125,-2.065
'17:08.986',1.855,-1.990
'17:08.989',1.460,-1.910
'17:08.992',1.000,-1.740
'17:08.994',0.500,-1.480
'17:08.997',0.015,-1.125
'17:09.000',-0.410,-0.775
'17:09.003',-0.765,-0.510
'17:09.006',-0.970,-0.375
'17:09.008',-1.035,-0.325
'17:09.011',-0.960,-0.345
'17:09.014',-0.815,-0.355
'17:09.017',-0.650,-0.370
'17:09.019',-0.535,-0.360
'17:09.022',-0.500,-0.340
'17:09.025',-0.515,-0.315
'17:09.028',-0.555,-0.270
'17:09.031',-0.615,-0.270
'17:09.033',-0.620,-0.265
'17:09.036',-0.635,-0.260
'17:09.039',-0.645,-0.275
'17:09.042',-0.650,-0.265
'17:09.044',-0.645,-0.270
'17:09.047',-0.650,-0.245
'17:09.050',-0.670,-0.220
'17:09.053',-0.670,-0.205
'17:09.056',-0.665,-0.200
'17:09.058',-0.660,-0.175
'17:09.061',-0.665,-0.160
'17:09.064',-0.670,-0.160
'17:09.067',-0.695,-0.145
'17:09.069',-0.700,-0.150
'17:09.072',-0.715,-0.150
'17:09.075',-0.720,-0.150
'17:09.078',-0.715,-0.145
'17:09.081',-0.710,-0.135
'17:09.083',-0.700,-0.125
'17:09.086',-0.715,-0.105
'17:09.089',-0.700,-0.095
'17:09.092',-0.705,-0.070
'17:09.094',-0.700,-0.055
'17:09.097',-0.690,-0.045
'17:09.100',-0.690,-0.035
'17:09.103',-0.680,-0.010
'17:09.106',-0.680,-0.015
'17:09.108',-0.670,-0.015
'17:09.111',-0.675,-0.010
'17:09.114',-0.660,0.005
'17:09.117',-0.655,0.025
'17:09.119',-0.630,0.055
'17:09.122',-0.620,0.085
'17:09.125',-0.580,0.105
'17:09.128',-0.550,0.110
'17:09.131',-0.520,0.125
'17:09.133',-0.505,0.140
'17:09.136',-0.485,0.140
'17:09.139',-0.450,0.160
'17:09.142',-0.425,0.165
'17:09.144',-0.385,0.170
'17:09.147',-0.360,0.190
'17:09.150',-0.310,0.190
'17:09.153',-0.255,0.205
'17:09.156',-0.210,0.210
'17:09.158',-0.180,0.215
'17:09.161',-0.145,0.220
'17:09.164',-0.095,0.230
'17:09.167',-0.045,0.235
'17:09.169',-0.010,0.230
'17:09.172',0.045,0.235
'17:09.175',0.095,0.220
'17:09.178',0.130,0.215
'17:09.181',0.160,0.210
'17:09.183',0.190,0.210
'17:09.186',0.225,0.215
'17:09.189',0.280,0.210
'17:09.192',0.350,0.225
'17:09.194',0.410,0.220
'17:09.197',0.450,0.195
'17:09.200',0.485,0.180
'17:09.203',0.505,0.150
'17:09.206',0.520,0.125
'17:09.208',0.550,0.095
'17:09.211',0.565,0.080
'17:09.214',0.590,0.075
'17:09.217',0.625,0.085
'17:09.219',0.635,0.075
'17:09.222',0.645,0.080
'17:09.225',0.645,0.070
'17:09.228',0.645,0.045
'17:09.231',0.635,0.020
'17:09.233',0.645,-0.005
'17:09.236',0.640,-0.025
'17:09.239',0.640,-0.045
'17:09.242',0.635,-0.050
'17:09.244',0.625,-0.060
'17:09.247',0.625,-0.070
'17:09.250',0.610,-0.090
'17:09.253',0.605,-0.105
'17:09.256',0.595,-0.125
'17:09.258',0.575,-0.130
'17:09.261',0.570,-0.140
'17:09.264',0.555,-0.155
'17:09.267',0.535,-0.160
'17:09.269',0.500,-0.150
'17:09.272',0.455,-0.150
'17:09.275',0.425,-0.170
'17:09.278',0.390,-0.155
'17:09.281',0.360,-0.155
'17:09.283',0.340,-0.145
'17:09.286',0.315,-0.135
'17:09.289',0.310,-0.135
'17:09.292',0.285,-0.120
'17:09.294',0.250,-0.115
'17:09.297',0.230,-0.125
'17:09.300',0.200,-0.125
'17:09.303',0.175,-0.095
'17:09.306',0.155,-0.075
'17:09.308',0.130,-0.055
'17:09.311',0.110,-0.050
'17:09.314',0.085,-0.035
'17:09.317',0.065,-0.040
'17:09.319',0.045,-0.055
'17:09.322',0.030,-0.060
'17:09.325',0.030,-0.055
'17:09.328',0.020,-0.045
'17:09.331',0.000,-0.035
'17:09.333',-0.010,-0.020
'17:09.336',-0.030,0.000
'17:09.339',-0.060,0.020
'17:09.342',-0.075,0.030
'17:09.344',-0.090,0.035
'17:09.347',-0.080,0.055
'17:09.350',-0.060,0.070
'17:09.353',-0.045,0.105
'17:09.356',-0.040,0.130
'17:09.358',-0.065,0.160
'17:09.361',-0.080,0.165
'17:09.364',-0.105,0.160
'17:09.367',-0.090,0.145
'17:09.369',-0.075,0.115
'17:09.372',-0.055,0.080
'17:09.375',-0.015,0.045
'17:09.378',0.030,0.010
'17:09.381',0.085,-0.005
'17:09.383',0.135,-0.055
'17:09.386',0.160,-0.075
'17:09.389',0.180,-0.120
'17:09.392',0.205,-0.135
'17:09.394',0.225,-0.170
'17:09.397',0.255,-0.195
'17:09.400',0.280,-0.190
'17:09.403',0.290,-0.185
'17:09.406',0.295,-0.185
'17:09.408',0.280,-0.200
'17:09.411',0.245,-0.215
'17:09.414',0.205,-0.240
'17:09.417',0.160,-0.260
'17:09.419',0.115,-0.270
'17:09.422',0.080,-0.265
'17:09.425',0.060,-0.245
'17:09.428',0.025,-0.235
'17:09.431',-0.005,-0.250
'17:09.433',-0.040,-0.265
'17:09.436',-0.075,-0.280
'17:09.439',-0.095,-0.305
'17:09.442',-0.105,-0.320
'17:09.444',-0.090,-0.325
'17:09.447',-0.080,-0.320
'17:09.450',-0.070,-0.315
'17:09.453',-0.050,-0.305
'17:09.456',-0.035,-0.300
'17:09.458',-0.035,-0.300
'17:09.461',-0.030,-0.315
'17:09.464',-0.030,-0.320
'17:09.467',-0.040,-0.330
'17:09.469',-0.045,-0.345
'17:09.472',-0.040,-0.340
'17:09.475',-0.045,-0.350
'17:09.478',-0.055,-0.335
'17:09.481',-0.045,-0.320
'17:09.483',-0.045,-0.315
'17:09.486',-0.040,-0.300
'17:09.489',-0.015,-0.295
'17:09.492',-0.015,-0.265
'17:09.494',-0.020,-0.230
'17:09.497',-0.035,-0.180
'17:09.500',-0.050,-0.130
'17:09.503',-0.075,-0.105
'17:09.506',-0.095,-0.155
'17:09.508',-0.100,-0.300
'17:09.511',-0.045,-0.550
'17:09.514',0.055,-0.900
'17:09.517',0.235,-1.310
'17:09.519',0.475,-1.700
'17:09.522',0.765,-2.020
'17:09.525',1.095,-2.245
'17:09.528',1.455,-2.380
'17:09.531',1.810,-2.455
'17:09.533',2.100,-2.470
'17:09.536',2.270,-2.445
'17:09.539',2.265,-2.415
'17:09.542',2.070,-2.350
'17:09.544',1.735,-2.295
'17:09.547',1.345,-2.240
'17:09.550',0.920,-2.145
'17:09.553',0.515,-1.960
'17:09.556',0.175,-1.665
'17:09.558',-0.090,-1.315
'17:09.561',-0.295,-0.975
'17:09.564',-0.465,-0.740
'17:09.567',-0.580,-0.600
'17:09.569',-0.670,-0.535
'17:09.572',-0.690,-0.520
'17:09.575',-0.650,-0.535
'17:09.578',-0.555,-0.520
'17:09.581',-0.445,-0.510
'17:09.583',-0.340,-0.485
'17:09.586',-0.255,-0.460
'17:09.589',-0.230,-0.435
'17:09.592',-0.250,-0.405
'17:09.594',-0.265,-0.385
'17:09.597',-0.310,-0.380
'17:09.600',-0.330,-0.380
'17:09.603',-0.355,-0.365
'17:09.606',-0.365,-0.355
'17:09.608',-0.360,-0.355
'17:09.611',-0.370,-0.350
'17:09.614',-0.370,-0.335
'17:09.617',-0.380,-0.315
'17:09.619',-0.400,-0.295
'17:09.622',-0.415,-0.275
'17:09.625',-0.420,-0.265
'17:09.628',-0.420,-0.255
'17:09.631',-0.415,-0.255
'17:09.633',-0.410,-0.250
'17:09.636',-0.410,-0.245
'17:09.639',-0.450,-0.215
'17:09.642',-0.460,-0.215
'17:09.644',-0.465,-0.205
'17:09.647',-0.455,-0.195
'17:09.650',-0.450,-0.200
'17:09.653',-0.420,-0.185
'17:09.656',-0.390,-0.160
'17:09.658',-0.375,-0.145
'17:09.661',-0.355,-0.115
'17:09.664',-0.350,-0.105
'17:09.667',-0.355,-0.075
'17:09.669',-0.360,-0.060
'17:09.672',-0.355,-0.045
'17:09.675',-0.335,-0.055
'17:09.678',-0.315,-0.045
'17:09.681',-0.285,-0.025
'17:09.683',-0.255,-0.015
'17:09.686',-0.225,0.020
'17:09.689',-0.210,0.050
'17:09.692',-0.175,0.075
'17:09.694',-0.130,0.105
'17:09.697',-0.090,0.125
'17:09.700',-0.060,0.135
'17:09.703',-0.020,0.130
'17:09.706',-0.005,0.135
'17:09.708',0.020,0.135
'17:09.711',0.030,0.140
'17:09.714',0.060,0.160
'17:09.717',0.100,0.180
'17:09.719',0.135,0.205
'17:09.722',0.170,0.210
'17:09.725',0.215,0.195
'17:09.728',0.250,0.200
'17:09.731',0.265,0.185
'17:09.733',0.305,0.195
'17:09.736',0.345,0.195
'17:09.739',0.390,0.190
'17:09.742',0.425,0.190
'17:09.744',0.455,0.160
'17:09.747',0.480,0.175
'17:09.750',0.500,0.150
'17:09.753',0.530,0.145
'17:09.756',0.565,0.145
'17:09.758',0.600,0.125
'17:09.761',0.630,0.120
'17:09.764',0.670,0.110
'17:09.767',0.675,0.085
'17:09.769',0.705,0.065
'17:09.772',0.715,0.035
'17:09.775',0.720,0.025
'17:09.778',0.700,0.005
'17:09.781',0.705,-0.005
'17:09.783',0.715,-0.005
'17:09.786',0.725,0.000
'17:09.789',0.750,0.005
'17:09.792',0.755,-0.020
'17:09.794',0.755,-0.010
'17:09.797',0.725,-0.035
'17:09.800',0.695,-0.020
'17:09.803',0.660,-0.050
'17:09.806',0.640,-0.075
'17:09.808',0.610,-0.115
'17:09.811',0.610,-0.140
'17:09.814',0.600,-0.155
'17:09.817',0.565,-0.165
'17:09.819',0.550,-0.165
'17:09.822',0.505,-0.160
'17:09.825',0.480,-0.175
'17:09.828',0.460,-0.155
'17:09.831',0.430,-0.165
'17:09.833',0.425,-0.165
'17:09.836',0.385,-0.155
'17:09.839',0.330,-0.160
'17:09.842',0.270,-0.165
'17:09.844',0.220,-0.170
'17:09.847',0.180,-0.170
'17:09.850',0.160,-0.160
'17:09.853',0.165,-0.130
'17:09.856',0.160,-0.120
'17:09.858',0.150,-0.090
'17:09.861',0.105,-0.075
'17:09.864',0.070,-0.060
'17:09.867',0.025,-0.055
'17:09.869',-0.020,-0.050
'17:09.872',-0.065,-0.045
'17:09.875',-0.100,-0.025
'17:09.878',-0.135,-0.040
'17:09.881',-0.155,-0.030
'17:09.883',-0.180,-0.025
'17:09.886',-0.200,-0.030
'17:09.889',-0.215,-0.010
'17:09.892',-0.225,-0.015
'17:09.894',-0.240,-0.010
'17:09.897',-0.240,-0.015
'17:09.900',-0.235,-0.005
'17:09.903',-0.250,0.005
'17:09.906',-0.265,0.005
'17:09.908',-0.275,0.010
'17:09.911',-0.290,0.015
'17:09.914',-0.295,0.020
'17:09.917',-0.280,0.045
'17:09.919',-0.255,0.095
'17:09.922',-0.240,0.140
'17:09.925',-0.235,0.180
'17:09.928',-0.230,0.200
'17:09.931',-0.235,0.195
'17:09.933',-0.240,0.170
'17:09.936',-0.230,0.140
'17:09.939',-0.195,0.125
'17:09.942',-0.155,0.110
'17:09.944',-0.110,0.065
'17:09.947',-0.065,0.035
'17:09.950',-0.020,-0.005
'17:09.953',-0.005,-0.040
'17:09.956',0.010,-0.070
'17:09.958',0.035,-0.080
'17:09.961',0.050,-0.085
'17:09.964',0.065,-0.090
'17:09.967',0.070,-0.095
'17:09.969',0.065,-0.105
'17:09.972',0.050,-0.125
'17:09.975',0.030,-0.140
'17:09.978',-0.005,-0.170
'17:09.981',-0.045,-0.185
'17:09.983',-0.105,-0.190
'17:09.986',-0.155,-0.205
'17:09.989',-0.195,-0.190
'17:09.992',-0.230,-0.185
'17:09.994',-0.260,-0.195
'17:09.997',-0.295,-0.205
'17:10.000',-0.320,-0.220
'17:10.003',-0.335,-0.235
'17:10.006',-0.330,-0.235
'17:10.008',-0.330,-0.245
'17:10.011',-0.330,-0.255
'17:10.014',-0.360,-0.240
'17:10.017',-0.360,-0.225
'17:10.019',-0.390,-0.220
'17:10.022',-0.385,-0.225
'17:10.025',-0.375,-0.230
'17:10.028',-0.350,-0.220
'17:10.031',-0.330,-0.225
'17:10.033',-0.335,-0.240
'17:10.036',-0.335,-0.240
'17:10.039',-0.345,-0.235
'17:10.042',-0.365,-0.265
'17:10.044',-0.385,-0.275
'17:10.047',-0.395,-0.255
'17:10.050',-0.390,-0.220
'17:10.053',-0.380,-0.155
'17:10.056',-0.360,-0.085
'17:10.058',-0.365,-0.005
'17:10.061',-0.385,0.025
'17:10.064',-0.410,-0.050
'17:10.067',-0.430,-0.225
'17:10.069',-0.415,-0.500
'17:10.072',-0.320,-0.865
'17:10.075',-0.135,-1.235
'17:10.078',0.135,-1.560
'17:10.081',0.445,-1.775
'17:10.083',0.810,-1.920
'17:10.086',1.195,-1.980
'17:10.089',1.570,-2.010
'17:10.092',1.890,-1.985
'17:10.094',2.120,-1.960
'17:10.097',2.185,-1.905
'17:10.100',2.060,-1.820
'17:10.103',1.790,-1.735
'17:10.106',1.385,-1.630
'17:10.108',0.915,-1.470
'17:10.111',0.430,-1.260
'17:10.114',-0.040,-1.025
'17:10.117',-0.460,-0.815
'17:10.119',-0.810,-0.640
'17:10.122',-1.085,-0.520
'17:10.125',-1.230,-0.415
'17:10.128',-1.225,-0.365
'17:10.131',-1.135,-0.335
'17:10.133',-0.995,-0.315
'17:10.136',-0.830,-0.320
'17:10.139',-0.710,-0.305
'17:10.142',-0.635,-0.280
'17:10.144',-0.620,-0.260
'17:10.147',-0.650,-0.235
'17:10.150',-0.700,-0.210
'17:10.153',-0.715,-0.185
'17:10.156',-0.740,-0.185
'17:10.158',-0.740,-0.180
'17:10.161',-0.725,-0.185
'17:10.164',-0.725,-0.190
'17:10.167',-0.725,-0.180
'17:10.169',-0.740,-0.185
'17:10.172',-0.755,-0.170
'17:10.175',-0.780,-0.155
'17:10.178',-0.800,-0.160
'17:10.181',-0.800,-0.155
'17:10.183',-0.790,-0.150
'17:10.186',-0.785,-0.120
'17:10.189',-0.785,-0.100
'17:10.192',-0.780,-0.075
'17:10.194',-0.785,-0.070
'17:10.197',-0.785,-0.055
'17:10.200',-0.800,-0.055
'17:10.203',-0.790,-0.065
'17:10.206',-0.790,-0.060
'17:10.208',-0.785,-0.055
'17:10.211',-0.775,-0.045
'17:10.214',-0.775,-0.025
'17:10.217',-0.775,0.000
'17:10.219',-0.765,0.015
'17:10.222',-0.735,0.035
'17:10.225',-0.700,0.050
'17:10.228',-0.690,0.070
'17:10.231',-0.675,0.065
'17:10.233',-0.675,0.080
'17:10.236',-0.670,0.090
'17:10.239',-0.655,0.105
'17:10.242',-0.635,0.125
'17:10.244',-0.600,0.135
'17:10.247',-0.570,0.155
'17:10.250',-0.530,0.180
'17:10.253',-0.495,0.205
'17:10.256',-0.465,0.225
'17:10.258',-0.445,0.255
'17:10.261',-0.410,0.265
'17:10.264',-0.385,0.255
'17:10.267',-0.350,0.255
'17:10.269',-0.315,0.240
'17:10.272',-0.300,0.220
'17:10.275',-0.280,0.210
'17:10.278',-0.240,0.230
'17:10.281',-0.210,0.240
'17:10.283',-0.175,0.235
'17:10.286',-0.130,0.250
'17:10.289',-0.080,0.240
'17:10.292',-0.045,0.225
'17:10.294',-0.010,0.225
'17:10.297',0.000,0.200
'17:10.300',0.035,0.195
'17:10.303',0.045,0.180
'17:10.306',0.070,0.175
'17:10.308',0.120,0.165
'17:10.311',0.155,0.130
'17:10.314',0.195,0.095
'17:10.317',0.230,0.070
'17:10.319',0.245,0.050
'17:10.322',0.260,0.045
'17:10.325',0.280,0.050
'17:10.328',0.290,0.045
'17:10.331',0.320,0.040
'17:10.333',0.320,0.030
'17:10.336',0.305,-0.005
'17:10.339',0.300,-0.025
'17:10.342',0.290,-0.050
'17:10.344',0.285,-0.060
'17:10.347',0.270,-0.050
'17:10.350',0.270,-0.050
'17:10.353',0.265,-0.045
'17:10.356',0.275,-0.065
'17:10.358',0.250,-0.065
'17:10.361',0.220,-0.075
'17:10.364',0.200,-0.085
'17:10.367',0.155,-0.100
'17:10.369',0.120,-0.085
'17:10.372',0.100,-0.085
'17:10.375',0.080,-0.080
'17:10.378',0.055,-0.085
'17:10.381',0.025,-0.065
'17:10.383',-0.010,-0.060
'17:10.386',-0.040,-0.060
'17:10.389',-0.080,-0.040
'17:10.392',-0.110,-0.020
'17:10.394',-0.120,-0.010
'17:10.397',-0.140,0.020
'17:10.400',-0.170,0.035
'17:10.403',-0.190,0.020
'17:10.406',-0.220,0.025
'17:10.408',-0.250,0.010
'17:10.411',-0.305,0.005
'17:10.414',-0.335,0.010
'17:10.417',-0.360,0.020
'17:10.419',-0.380,0.040
'17:10.422',-0.390,0.060
'17:10.425',-0.380,0.070
'17:10.428',-0.385,0.075
'17:10.431',-0.405,0.055
'17:10.433',-0.415,0.060
'17:10.436',-0.440,0.065
'17:10.439',-0.445,0.060
'17:10.442',-0.470,0.070
'17:10.444',-0.485,0.080
'17:10.447',-0.460,0.105
'17:10.450',-0.455,0.130
'17:10.453',-0.445,0.140
'17:10.456',-0.445,0.170
'17:10.458',-0.445,0.190
'17:10.461',-0.430,0.225
'17:10.464',-0.420,0.240
'17:10.467',-0.425,0.285
'17:10.469',-0.415,0.300
'17:10.472',-0.415,0.315
'17:10.475',-0.405,0.290
'17:10.478',-0.395,0.265
'17:10.481',-0.385,0.235
'17:10.483',-0.375,0.205
'17:10.486',-0.345,0.185
'17:10.489',-0.300,0.160
'17:10.492',-0.250,0.140
'17:10.494',-0.210,0.135
'17:10.497',-0.185,0.085
'17:10.500',-0.170,0.050
'17:10.503',-0.155,0.020
'17:10.506',-0.160,-0.010
'17:10.508',-0.165,-0.035
'17:10.511',-0.150,-0.040
'17:10.514',-0.145,-0.050
'17:10.517',-0.130,-0.045
'17:10.519',-0.120,-0.025
'17:10.522',-0.135,-0.045
'17:10.525',-0.165,-0.065
'17:10.528',-0.200,-0.070
'17:10.531',-0.255,-0.095
'17:10.533',-0.305,-0.100
'17:10.536',-0.345,-0.110
'17:10.539',-0.390,-0.115
'17:10.542',-0.425,-0.120
'17:10.544',-0.475,-0.125
'17:10.547',-0.505,-0.120
'17:10.550',-0.545,-0.115
'17:10.553',-0.560,-0.135
'17:10.556',-0.545,-0.135
'17:10.558',-0.540,-0.135
'17:10.561',-0.520,-0.130
'17:10.564',-0.505,-0.140
'17:10.567',-0.490,-0.130
'17:10.569',-0.495,-0.140
'17:10.572',-0.500,-0.140
'17:10.575',-0.520,-0.160
'17:10.578',-0.535,-0.180
'17:10.581',-0.545,-0.180
'17:10.583',-0.545,-0.165
'17:10.586',-0.530,-0.160
'17:10.589',-0.540,-0.140
'17:10.592',-0.520,-0.130
'17:10.594',-0.510,-0.140
'17:10.597',-0.515,-0.155
'17:10.600',-0.520,-0.145
'17:10.603',-0.520,-0.140
'17:10.606',-0.530,-0.105
'17:10.608',-0.530,-0.055
'17:10.611',-0.535,0.000
'17:10.614',-0.555,0.065
'17:10.617',-0.590,0.050
'17:10.619',-0.605,-0.040
'17:10.622',-0.605,-0.220
'17:10.625',-0.550,-0.500
'17:10.628',-0.395,-0.880
'17:10.631',-0.165,-1.275
'17:10.633',0.140,-1.600
'17:10.636',0.505,-1.855
'17:10.639',0.895,-2.010
'17:10.642',1.300,-2.070
'17:10.644',1.665,-2.090
'17:10.647',1.910,-2.065
'17:10.650',2.015,-2.010
'17:10.653',1.935,-1.960
'17:10.656',1.705,-1.880
'17:10.658',1.380,-1.835
'17:10.661',0.985,-1.740
'17:10.664',0.545,-1.590
'17:10.667',0.130,-1.350
'17:10.669',-0.260,-1.065
'17:10.672',-0.580,-0.810
'17:10.675',-0.860,-0.605
'17:10.678',-1.065,-0.500
'17:10.681',-1.190,-0.415
'17:10.683',-1.200,-0.375
'17:10.686',-1.140,-0.340
'17:10.689',-1.010,-0.320
'17:10.692',-0.885,-0.310
'17:10.694',-0.770,-0.280
'17:10.697',-0.695,-0.265
'17:10.700',-0.695,-0.245
'17:10.703',-0.705,-0.240
'17:10.706',-0.720,-0.235
'17:10.708',-0.770,-0.225
'17:10.711',-0.795,-0.220
'17:10.714',-0.820,-0.210
'17:10.717',-0.830,-0.215
'17:10.719',-0.810,-0.200
'17:10.722',-0.805,-0.185
'17:10.725',-0.785,-0.180
'17:10.728',-0.770,-0.160
'17:10.731',-0.785,-0.160
'17:10.733',-0.810,-0.130
'17:10.736',-0.815,-0.130
'17:10.739',-0.845,-0.130
'17:10.742',-0.850,-0.140
'17:10.744',-0.850,-0.130
'17:10.747',-0.850,-0.120
'17:10.750',-0.860,-0.110
'17:10.753',-0.850,-0.080
'17:10.756',-0.865,-0.050
'17:10.758',-0.865,-0.040
'17:10.761',-0.855,-0.050
'17:10.764',-0.855,-0.050
'17:10.767',-0.840,-0.050
'17:10.769',-0.835,-0.035
'17:10.772',-0.830,-0.025
'17:10.775',-0.835,-0.005
'17:10.778',-0.840,0.020
'17:10.781',-0.850,0.040
'17:10.783',-0.840,0.065
'17:10.786',-0.820,0.065
'17:10.789',-0.790,0.075
'17:10.792',-0.755,0.075
'17:10.794',-0.730,0.120
'17:10.797',-0.695,0.120
'17:10.800',-0.680,0.140
'17:10.803',-0.680,0.155
'17:10.806',-0.650,0.145
'17:10.808',-0.625,0.145
'17:10.811',-0.600,0.155
'17:10.814',-0.560,0.170
'17:10.817',-0.545,0.180
'17:10.819',-0.515,0.195
'17:10.822',-0.485,0.220
'17:10.825',-0.460,0.230
'17:10.828',-0.430,0.240
'17:10.831',-0.370,0.250
'17:10.833',-0.305,0.240
'17:10.836',-0.255,0.240
'17:10.839',-0.215,0.220
'17:10.842',-0.175,0.220
'17:10.844',-0.140,0.245
'17:10.847',-0.125,0.235
'17:10.850',-0.060,0.255
'17:10.853',-0.005,0.255
'17:10.856',0.035,0.250
'17:10.858',0.105,0.255
'17:10.861',0.155,0.250
'17:10.864',0.200,0.240
'17:10.867',0.245,0.225
'17:10.869',0.265,0.190
'17:10.872',0.280,0.165
'17:10.875',0.320,0.140
'17:10.878',0.350,0.120
'17:10.881',0.395,0.115
'17:10.883',0.425,0.110
'17:10.886',0.455,0.090
'17:10.889',0.480,0.095
'17:10.892',0.495,0.080
'17:10.894',0.520,0.080
'17:10.897',0.525,0.075
'17:10.900',0.550,0.045
'17:10.903',0.565,0.030
'17:10.906',0.555,0.000
'17:10.908',0.535,-0.020
'17:10.911',0.520,-0.035
'17:10.914',0.495,-0.050
'17:10.917',0.475,-0.060
'17:10.919',0.480,-0.060
'17:10.922',0.475,-0.065
'17:10.925',0.480,-0.065
'17:10.928',0.485,-0.060
'17:10.931',0.465,-0.075
'17:10.933',0.440,-0.085
'17:10.936',0.410,-0.095
'17:10.939',0.385,-0.105
'17:10.942',0.360,-0.100
'17:10.944',0.345,-0.110
'17:10.947',0.335,-0.110
'17:10.950',0.310,-0.115
'17:10.953',0.290,-0.110
'17:10.956',0.265,-0.085
'17:10.958',0.240,-0.065
'17:10.961',0.215,-0.065
'17:10.964',0.175,-0.055
'17:10.967',0.165,-0.040
'17:10.969',0.130,-0.045
'17:10.972',0.115,-0.040
'17:10.975',0.090,-0.040
'17:10.978',0.040,-0.030
'17:10.981',0.010,-0.015
'17:10.983',-0.015,0.000
'17:10.986',-0.035,0.010
'17:10.989',-0.050,0.025
'17:10.992',-0.050,0.020
'17:10.994',-0.045,0.025
'17:10.997',-0.050,0.030
'17:11.000',-0.070,0.035
'17:11.003',-0.090,0.035
'17:11.006',-0.105,0.060
'17:11.008',-0.125,0.085
'17:11.011',-0.115,0.115
'17:11.014',-0.115,0.140
'17:11.017',-0.120,0.180
'17:11.019',-0.115,0.215
'17:11.022',-0.125,0.235
'17:11.025',-0.135,0.255
'17:11.028',-0.125,0.250
'17:11.031',-0.115,0.230
'17:11.033',-0.085,0.200
'17:11.036',-0.060,0.170
'17:11.039',-0.040,0.130
'17:11.042',0.000,0.075
'17:11.044',0.020,0.045
'17:11.047',0.020,0.005
'17:11.050',0.035,-0.030
'17:11.053',0.055,-0.060
'17:11.056',0.095,-0.065
'17:11.058',0.115,-0.065
'17:11.061',0.145,-0.060
'17:11.064',0.150,-0.075
'17:11.067',0.150,-0.075
'17:11.069',0.140,-0.085
'17:11.072',0.115,-0.085
'17:11.075',0.100,-0.105
'17:11.078',0.080,-0.130
'17:11.081',0.030,-0.125
'17:11.083',-0.020,-0.135
'17:11.086',-0.085,-0.140
'17:11.089',-0.130,-0.140
'17:11.092',-0.190,-0.150
'17:11.094',-0.235,-0.155
'17:11.097',-0.250,-0.170
'17:11.100',-0.260,-0.170
'17:11.103',-0.245,-0.175
'17:11.106',-0.240,-0.180
'17:11.108',-0.250,-0.180
'17:11.111',-0.255,-0.205
'17:11.114',-0.280,-0.215
'17:11.117',-0.300,-0.235
'17:11.119',-0.295,-0.220
'17:11.122',-0.310,-0.215
'17:11.125',-0.290,-0.205
'17:11.128',-0.280,-0.190
'17:11.131',-0.270,-0.195
'17:11.133',-0.260,-0.200
'17:11.136',-0.270,-0.200
'17:11.139',-0.285,-0.210
'17:11.142',-0.300,-0.215
'17:11.144',-0.310,-0.230
'17:11.147',-0.310,-0.220
'17:11.150',-0.300,-0.195
'17:11.153',-0.295,-0.175
'17:11.156',-0.285,-0.135
'17:11.158',-0.290,-0.100
'17:11.161',-0.295,-0.045
'17:11.164',-0.315,-0.015
'17:11.167',-0.330,-0.010
'17:11.169',-0.355,-0.050
'17:11.172',-0.355,-0.165
'17:11.175',-0.320,-0.350
'17:11.178',-0.235,-0.615
'17:11.181',-0.095,-0.895
'17:11.183',0.095,-1.190
'17:11.186',0.340,-1.470
'17:11.189',0.590,-1.710
'17:11.192',0.860,-1.900
'17:11.194',1.160,-2.025
'17:11.197',1.505,-2.130
'17:11.200',1.850,-2.145
'17:11.203',2.120,-2.165
'17:11.206',2.270,-2.145
'17:11.208',2.240,-2.110
'17:11.211',2.050,-2.080
'17:11.214',1.750,-2.015
'17:11.217',1.380,-1.935
'17:11.219',0.970,-1.790
'17:11.222',0.565,-1.550
'17:11.225',0.190,-1.220
'17:11.228',-0.150,-0.875
'17:11.231',-0.455,-0.620
'17:11.233',-0.685,-0.440
'17:11.236',-0.825,-0.365
'17:11.239',-0.855,-0.355
'17:11.242',-0.765,-0.350
'17:11.244',-0.635,-0.370
'17:11.247',-0.500,-0.355
'17:11.250',-0.425,-0.355
'17:11.253',-0.385,-0.320
'17:11.256',-0.410,-0.295
'17:11.258',-0.455,-0.280
'17:11.261',-0.495,-0.260
'17:11.264',-0.520,-0.275
'17:11.267',-0.530,-0.260
'17:11.269',-0.535,-0.265
'17:11.272',-0.525,-0.250
'17:11.275',-0.525,-0.250
'17:11.278',-0.535,-0.235
'17:11.281',-0.540,-0.240
'17:11.283',-0.560,-0.240
'17:11.286',-0.565,-0.240
'17:11.289',-0.550,-0.215
'17:11.292',-0.545,-0.195
'17:11.294',-0.545,-0.185
'17:11.297',-0.560,-0.160
'17:11.300',-0.570,-0.150
'17:11.303',-0.580,-0.145
'17:11.306',-0.585,-0.150
'17:11.308',-0.590,-0.160
'17:11.311',-0.575,-0.160
'17:11.314',-0.565,-0.140
'17:11.317',-0.555,-0.120
'17:11.319',-0.555,-0.090
'17:11.322',-0.540,-0.080
'17:11.325',-0.530,-0.060
'17:11.328',-0.520,-0.045
'17:11.331',-0.495,-0.040
'17:11.333',-0.475,-0.035
'17:11.336',-0.470,-0.030
'17:11.339',-0.440,-0.025
'17:11.342',-0.400,0.000
'17:11.344',-0.410,0.015
'17:11.347',-0.390,0.040
'17:11.350',-0.370,0.065
'17:11.353',-0.340,0.075
'17:11.356',-0.305,0.085
'17:11.358',-0.255,0.095
'17:11.361',-0.185,0.130
'17:11.364',-0.140,0.145
'17:11.367',-0.090,0.160
'17:11.369',-0.045,0.160
'17:11.372',-0.010,0.160
'17:11.375',0.025,0.150
'17:11.378',0.065,0.155
'17:11.381',0.105,0.160
'17:11.383',0.140,0.180
'17:11.386',0.195,0.210
'17:11.389',0.250,0.225
'17:11.392',0.290,0.230
'17:11.394',0.310,0.225
'17:11.397',0.345,0.225
'17:11.400',0.395,0.220
'17:11.403',0.440,0.210
'17:11.406',0.485,0.200
'17:11.408',0.525,0.205
'17:11.411',0.560,0.200
'17:11.414',0.595,0.200
'17:11.417',0.615,0.205
'17:11.419',0.670,0.215
'17:11.422',0.715,0.200
'17:11.425',0.760,0.185
'17:11.428',0.805,0.170
'17:11.431',0.830,0.165
'17:11.433',0.850,0.145
'17:11.436',0.870,0.115
'17:11.439',0.880,0.105
'17:11.442',0.880,0.090
'17:11.444',0.885,0.070
'17:11.447',0.900,0.050
'17:11.450',0.910,0.030
'17:11.453',0.935,0.010
'17:11.456',0.935,0.010
'17:11.458',0.930,-0.005
'17:11.461',0.925,-0.010
'17:11.464',0.910,-0.020
'17:11.467',0.895,-0.020
'17:11.469',0.890,-0.040
'17:11.472',0.885,-0.055
'17:11.475',0.875,-0.070
'17:11.478',0.865,-0.110
'17:11.481',0.840,-0.115
'17:11.483',0.820,-0.130
'17:11.486',0.785,-0.125
'17:11.489',0.770,-0.140
'17:11.492',0.740,-0.145
'17:11.494',0.730,-0.145
'17:11.497',0.710,-0.160
'17:11.500',0.700,-0.160
'17:11.503',0.670,-0.180
'17:11.506',0.625,-0.190
'17:11.508',0.595,-0.185
'17:11.511',0.555,-0.205
'17:11.514',0.515,-0.185
'17:11.517',0.505,-0.185
'17:11.519',0.495,-0.160
'17:11.522',0.485,-0.155
'17:11.525',0.455,-0.140
'17:11.528',0.455,-0.125
'17:11.531',0.420,-0.125
'17:11.533',0.395,-0.120
'17:11.536',0.340,-0.140
'17:11.539',0.295,-0.140
'17:11.542',0.250,-0.140
'17:11.544',0.220,-0.145
'17:11.547',0.185,-0.130
'17:11.550',0.180,-0.115
'17:11.553',0.160,-0.105
'17:11.556',0.145,-0.090
'17:11.558',0.110,-0.080
'17:11.561',0.090,-0.060
'17:11.564',0.070,-0.065
'17:11.567',0.060,-0.065
'17:11.569',0.050,-0.070
'17:11.572',0.050,-0.075
'17:11.575',0.010,-0.060
'17:11.578',0.000,-0.055
'17:11.581',-0.020,-0.050
'17:11.583',-0.055,-0.030
'17:11.586',-0.065,-0.015
'17:11.589',-0.060,0.015
'17:11.592',-0.045,0.045
'17:11.594',-0.025,0.065
'17:11.597',-0.025,0.080
'17:11.600',-0.020,0.095
'17:11.603',-0.020,0.100
'17:11.606',-0.020,0.090
'17:11.608',-0.005,0.065
'17:11.611',0.010,0.050
'17:11.614',0.040,0.035
'17:11.617',0.070,0.025
'17:11.619',0.105,0.010
'17:11.622',0.130,0.005
'17:11.625',0.150,-0.035
'17:11.628',0.165,-0.055
'17:11.631',0.195,-0.075
'17:11.633',0.220,-0.105
'17:11.636',0.255,-0.135
'17:11.639',0.265,-0.160
'17:11.642',0.275,-0.170
'17:11.644',0.270,-0.180
'17:11.647',0.250,-0.200
'17:11.650',0.225,-0.205
'17:11.653',0.200,-0.220
'17:11.656',0.155,-0.225
'17:11.658',0.105,-0.220
'17:11.661',0.075,-0.220
'17:11.664',0.030,-0.235
'17:11.667',-0.015,-0.250
'17:11.669',-0.055,-0.270
'17:11.672',-0.090,-0.285
'17:11.675',-0.145,-0.290
'17:11.678',-0.155,-0.315
'17:11.681',-0.170,-0.315
'17:11.683',-0.175,-0.310
'17:11.686',-0.160,-0.300
'17:11.689',-0.165,-0.300
'17:11.692',-0.160,-0.290
'17:11.694',-0.170,-0.290
'17:11.697',-0.180,-0.285
'17:11.700',-0.170,-0.290
'17:11.703',-0.155,-0.315
'17:11.706',-0.150,-0.315
'17:11.708',-0.155,-0.335
'17:11.711',-0.155,-0.350
'17:11.714',-0.170,-0.340
'17:11.717',-0.175,-0.335
'17:11.719',-0.165,-0.325
'17:11.722',-0.165,-0.300
'17:11.725',-0.165,-0.290
'17:11.728',-0.155,-0.285
'17:11.731',-0.155,-0.255
'17:11.733',-0.145,-0.200
'17:11.736',-0.160,-0.145
'17:11.739',-0.195,-0.105
'17:11.742',-0.235,-0.105
'17:11.744',-0.260,-0.165
'17:11.747',-0.270,-0.315
'17:11.750',-0.230,-0.575
'17:11.753',-0.100,-0.920
'17:11.756',0.080,-1.280
'17:11.758',0.315,-1.615
'17:11.761',0.620,-1.880
'17:11.764',0.960,-2.040
'17:11.767',1.345,-2.110
'17:11.769',1.710,-2.115
'17:11.772',2.015,-2.100
'17:11.775',2.180,-2.070
'17:11.778',2.155,-2.020
'17:11.781',1.945,-1.950
'17:11.783',1.590,-1.890
'17:11.786',1.145,-1.815
'17:11.789',0.675,-1.695
'17:11.792',0.245,-1.490
'17:11.794',-0.105,-1.225
'17:11.797',-0.390,-0.980
'17:11.800',-0.625,-0.780
'17:11.803',-0.815,-0.645
'17:11.806',-0.930,-0.580
'17:11.808',-0.955,-0.535
'17:11.811',-0.890,-0.520
'17:11.814',-0.770,-0.480
'17:11.817',-0.625,-0.450
'17:11.819',-0.515,-0.400
'17:11.822',-0.460,-0.370
'17:11.825',-0.435,-0.360
'17:11.828',-0.455,-0.330
'17:11.831',-0.505,-0.340
'17:11.833',-0.535,-0.335
'17:11.836',-0.545,-0.335
'17:11.839',-0.555,-0.320
'17:11.842',-0.565,-0.310
'17:11.844',-0.580,-0.305
'17:11.847',-0.590,-0.295
'17:11.850',-0.585,-0.295
'17:11.853',-0.585,-0.280
'17:11.856',-0.580,-0.265
'17:11.858',-0.575,-0.235
'17:11.861',-0.550,-0.205
'17:11.864',-0.560,-0.195
'17:11.867',-0.560,-0.200
'17:11.869',-0.570,-0.215
'17:11.872',-0.595,-0.235
'17:11.875',-0.590,-0.225
'17:11.878',-0.590,-0.210
'17:11.881',-0.585,-0.195
'17:11.883',-0.570,-0.160
'17:11.886',-0.555,-0.130
'17:11.889',-0.550,-0.115
'17:11.892',-0.555,-0.105
'17:11.894',-0.530,-0.085
'17:11.897',-0.515,-0.080
'17:11.900',-0.505,-0.075
'17:11.903',-0.470,-0.045
'17:11.906',-0.460,-0.055
'17:11.908',-0.455,-0.050
'17:11.911',-0.440,-0.045
'17:11.914',-0.425,-0.045
'17:11.917',-0.405,-0.025
'17:11.919',-0.380,-0.010
'17:11.922',-0.340,0.005
'17:11.925',-0.315,0.030
'17:11.928',-0.275,0.070
'17:11.931',-0.255,0.090
'17:11.933',-0.225,0.105
'17:11.936',-0.205,0.095
'17:11.939',-0.185,0.105
'17:11.942',-0.150,0.100
'17:11.944',-0.120,0.090
'17:11.947',-0.095,0.095
'17:11.950',-0.070,0.100
'17:11.953',-0.040,0.115
'17:11.956',-0.020,0.120
'17:11.958',0.015,0.115
'17:11.961',0.060,0.110
'17:11.964',0.105,0.105
'17:11.967',0.160,0.115
'17:11.969',0.205,0.115
'17:11.972',0.255,0.115
'17:11.975',0.275,0.110
'17:11.978',0.275,0.090
'17:11.981',0.285,0.070
'17:11.983',0.295,0.045
'17:11.986',0.310,0.020
'17:11.989',0.345,-0.005
'17:11.992',0.390,-0.015
'17:11.994',0.430,-0.010
'17:11.997',0.455,-0.040
'17:12.000',0.480,-0.045
'17:12.003',0.475,-0.070
'17:12.006',0.475,-0.090
'17:12.008',0.495,-0.110
'17:12.011',0.505,-0.115
'17:12.014',0.495,-0.130
'17:12.017',0.490,-0.135
'17:12.019',0.490,-0.130
'17:12.022',0.480,-0.145
'17:12.025',0.475,-0.130
'17:12.028',0.455,-0.135
'17:12.031',0.460,-0.150
'17:12.033',0.445,-0.165
'17:12.036',0.430,-0.180
'17:12.039',0.410,-0.175
'17:12.042',0.355,-0.185
'17:12.044',0.345,-0.195
'17:12.047',0.310,-0.175
'17:12.050',0.280,-0.195
'17:12.053',0.255,-0.185
'17:12.056',0.240,-0.175
'17:12.058',0.250,-0.155
'17:12.061',0.220,-0.155
'17:12.064',0.185,-0.150
'17:12.067',0.145,-0.135
'17:12.069',0.110,-0.130
'17:12.072',0.080,-0.115
'17:12.075',0.040,-0.110
'17:12.078',0.010,-0.100
'17:12.081',-0.010,-0.105
'17:12.083',-0.035,-0.100
'17:12.086',-0.065,-0.100
'17:12.089',-0.090,-0.075
'17:12.092',-0.125,-0.060
'17:12.094',-0.155,-0.040
'17:12.097',-0.175,-0.030
'17:12.100',-0.180,-0.025
'17:12.103',-0.200,-0.025
'17:12.106',-0.220,-0.025
'17:12.108',-0.260,-0.030
'17:12.111',-0.285,-0.020
'17:12.114',-0.315,-0.025
'17:12.117',-0.340,0.000
'17:12.119',-0.340,-0.005
'17:12.122',-0.345,-0.015
'17:12.125',-0.330,-0.005
'17:12.128',-0.320,0.005
'17:12.131',-0.315,0.000
'17:12.133',-0.325,0.010
'17:12.136',-0.325,0.020
'17:12.139',-0.355,0.030
'17:12.142',-0.365,0.040
'17:12.144',-0.355,0.050
'17:12.147',-0.355,0.065
'17:12.150',-0.325,0.075
'17:12.153',-0.325,0.115
'17:12.156',-0.325,0.145
'17:12.158',-0.325,0.190
'17:12.161',-0.325,0.215
'17:12.164',-0.310,0.230
'17:12.167',-0.295,0.215
'17:12.169',-0.265,0.195
'17:12.172',-0.240,0.160
'17:12.175',-0.215,0.140
'17:12.178',-0.205,0.105
'17:12.181',-0.190,0.080
'17:12.183',-0.200,0.075
'17:12.186',-0.185,0.050
'17:12.189',-0.165,0.030
'17:12.192',-0.135,-0.005
'17:12.194',-0.090,-0.030
'17:12.197',-0.060,-0.045
'17:12.200',-0.040,-0.065
'17:12.203',-0.035,-0.085
'17:12.206',-0.030,-0.095
'17:12.208',-0.055,-0.115
'17:12.211',-0.085,-0.120
'17:12.214',-0.105,-0.130
'17:12.217',-0.135,-0.150
'17:12.219',-0.180,-0.140
'17:12.222',-0.210,-0.160
'17:12.225',-0.275,-0.170
'17:12.228',-0.320,-0.175
'17:12.231',-0.365,-0.190
'17:12.233',-0.405,-0.195
'17:12.236',-0.425,-0.205
'17:12.239',-0.430,-0.205
'17:12.242',-0.425,-0.235
'17:12.244',-0.425,-0.230
'17:12.247',-0.420,-0.245
'17:12.250',-0.435,-0.240
'17:12.253',-0.435,-0.230
'17:12.256',-0.440,-0.225
'17:12.258',-0.450,-0.205
'17:12.261',-0.440,-0.185
'17:12.264',-0.430,-0.200
'17:12.267',-0.425,-0.195
'17:12.269',-0.420,-0.200
'17:12.272',-0.440,-0.215
'17:12.275',-0.440,-0.245
'17:12.278',-0.460,-0.250
'17:12.281',-0.460,-0.255
'17:12.283',-0.480,-0.235
'17:12.286',-0.475,-0.200
'17:12.289',-0.460,-0.180
'17:12.292',-0.445,-0.130
'17:12.294',-0.445,-0.090
'17:12.297',-0.460,-0.030
'17:12.300',-0.470,0.005
'17:12.303',-0.495,-0.005
'17:12.306',-0.520,-0.100
'17:12.308',-0.510,-0.315
'17:12.311',-0.460,-0.615
'17:12.314',-0.320,-0.990
'17:12.317',-0.120,-1.340
'17:12.319',0.170,-1.630
'17:12.322',0.515,-1.805
'17:12.325',0.905,-1.890
'17:12.328',1.310,-1.925
'17:12.331',1.670,-1.945
'17:12.333',1.950,-1.960
'17:12.336',2.100,-1.965
'17:12.339',2.125,-1.955
'17:12.342',2.000,-1.905
'17:12.344',1.750,-1.840
'17:12.347',1.405,-1.745
'17:12.350',1.005,-1.625
'17:12.353',0.570,-1.420
'17:12.356',0.135,-1.160
'17:12.358',-0.265,-0.905
'17:12.361',-0.625,-0.700
'17:12.364',-0.935,-0.560
'17:12.367',-1.135,-0.465
'17:12.369',-1.210,-0.410
'17:12.372',-1.170,-0.395
'17:12.375',-1.060,-0.355
'17:12.378',-0.920,-0.320
'17:12.381',-0.795,-0.295
'17:12.383',-0.715,-0.275
'17:12.386',-0.680,-0.260
'17:12.389',-0.685,-0.250
'17:12.392',-0.710,-0.250
'17:12.394',-0.735,-0.245
'17:12.397',-0.750,-0.240
'17:12.400',-0.750,-0.230
'17:12.403',-0.755,-0.225
'17:12.406',-0.755,-0.205
'17:12.408',-0.760,-0.210
'17:12.411',-0.765,-0.210
'17:12.414',-0.785,-0.210
'17:12.417',-0.810,-0.185
'17:12.419',-0.815,-0.185
'17:12.422',-0.820,-0.170
'17:12.425',-0.820,-0.135
'17:12.428',-0.810,-0.125
'17:12.431',-0.815,-0.115
'17:12.433',-0.810,-0.100
'17:12.436',-0.825,-0.110
'17:12.439',-0.840,-0.110
'17:12.442',-0.855,-0.115
'17:12.444',-0.865,-0.120
'17:12.447',-0.865,-0.100
'17:12.450',-0.865,-0.080
'17:12.453',-0.845,-0.065
'17:12.456',-0.850,-0.050
'17:12.458',-0.850,-0.025
'17:12.461',-0.840,-0.030
'17:12.464',-0.840,-0.030
'17:12.467',-0.825,-0.015
'17:12.469',-0.795,-0.015
'17:12.472',-0.770,0.000
'17:12.475',-0.765,0.015
'17:12.478',-0.775,0.040
'17:12.481',-0.785,0.060
'17:12.483',-0.780,0.060
'17:12.486',-0.770,0.075
'17:12.489',-0.755,0.085
'17:12.492',-0.740,0.110
'17:12.494',-0.715,0.135
'17:12.497',-0.675,0.140
'17:12.500',-0.645,0.155
'17:12.503',-0.630,0.180
'17:12.506',-0.615,0.170
'17:12.508',-0.600,0.170
'17:12.511',-0.590,0.185
'17:12.514',-0.570,0.185
'17:12.517',-0.535,0.200
'17:12.519',-0.500,0.220
'17:12.522',-0.455,0.235
'17:12.525',-0.425,0.230
'17:12.528',-0.380,0.260
'17:12.531',-0.350,0.255
'17:12.533',-0.310,0.250
'17:12.536',-0.285,0.245
'17:12.539',-0.255,0.250
'17:12.542',-0.220,0.240
'17:12.544',-0.175,0.235
'17:12.547',-0.135,0.220
'17:12.550',-0.095,0.225
'17:12.553',-0.060,0.230
'17:12.556',-0.030,0.225
'17:12.558',0.000,0.210
'17:12.561',0.030,0.215
'17:12.564',0.075,0.195
'17:12.567',0.110,0.175
'17:12.569',0.170,0.160
'17:12.572',0.195,0.145
'17:12.575',0.205,0.120
'17:12.578',0.225,0.120
'17:12.581',0.240,0.090
'17:12.583',0.255,0.075
'17:12.586',0.270,0.030
'17:12.589',0.315,0.020
'17:12.592',0.340,0.025
'17:12.594',0.375,0.030
'17:12.597',0.380,0.015
'17:12.600',0.390,0.015
'17:12.603',0.380,0.005
'17:12.606',0.365,-0.015
'17:12.608',0.350,-0.025
'17:12.611',0.345,-0.060
'17:12.614',0.320,-0.085
'17:12.617',0.325,-0.095
'17:12.619',0.305,-0.105
'17:12.622',0.295,-0.090
'17:12.625',0.285,-0.070
'17:12.628',0.260,-0.070
'17:12.631',0.250,-0.075
'17:12.633',0.220,-0.090
'17:12.636',0.215,-0.090
'17:12.639',0.190,-0.090
'17:12.642',0.170,-0.090
'17:12.644',0.130,-0.095
'17:12.647',0.085,-0.075
'17:12.650',0.050,-0.085
'17:12.653',0.025,-0.075
'17:12.656',0.010,-0.070
'17:12.658',-0.010,-0.060
'17:12.661',-0.030,-0.050
'17:12.664',-0.050,-0.030
'17:12.667',-0.080,-0.015
'17:12.669',-0.115,0.000
'17:12.672',-0.165,0.000
'17:12.675',-0.200,-0.005
'17:12.678',-0.225,-0.020
'17:12.681',-0.250,-0.015
'17:12.683',-0.245,0.005
'17:12.686',-0.265,0.020
'17:12.689',-0.275,0.050
'17:12.692',-0.295,0.060
'17:12.694',-0.310,0.090
'17:12.697',-0.325,0.085
'17:12.700',-0.330,0.090
'17:12.703',-0.325,0.090
'17:12.706',-0.320,0.100
'17:12.708',-0.330,0.120
'17:12.711',-0.340,0.150
'17:12.714',-0.350,0.180
'17:12.717',-0.365,0.205
'17:12.719',-0.365,0.235
'17:12.722',-0.360,0.250
'17:12.725',-0.355,0.260
'17:12.728',-0.335,0.255
'17:12.731',-0.305,0.225
'17:12.733',-0.275,0.205
'17:12.736',-0.250,0.185
'17:12.739',-0.225,0.165
'17:12.742',-0.205,0.135
'17:12.744',-0.185,0.100
'17:12.747',-0.175,0.065
'17:12.750',-0.170,0.030
'17:12.753',-0.145,0.000
'17:12.756',-0.135,-0.015
'17:12.758',-0.130,-0.020
'17:12.761',-0.105,-0.020
'17:12.764',-0.105,-0.030
'17:12.767',-0.080,-0.040
'17:12.769',-0.075,-0.040
'17:12.772',-0.080,-0.075
'17:12.775',-0.095,-0.085
'17:12.778',-0.115,-0.085
'17:12.781',-0.160,-0.100
'17:12.783',-0.225,-0.110
'17:12.786',-0.310,-0.120
'17:12.789',-0.350,-0.135
'17:12.792',-0.390,-0.130
'17:12.794',-0.415,-0.130
'17:12.797',-0.430,-0.140
'17:12.800',-0.450,-0.145
'17:12.803',-0.455,-0.155
'17:12.806',-0.475,-0.150
'17:12.808',-0.490,-0.175
'17:12.811',-0.475,-0.190
'17:12.814',-0.480,-0.185
'17:12.817',-0.470,-0.190
'17:12.819',-0.470,-0.185
'17:12.822',-0.460,-0.180
'17:12.825',-0.460,-0.175
'17:12.828',-0.465,-0.170
'17:12.831',-0.465,-0.165
'17:12.833',-0.470,-0.175
'17:12.836',-0.465,-0.175
'17:12.839',-0.475,-0.180
'17:12.842',-0.460,-0.175
'17:12.844',-0.490,-0.185
'17:12.847',-0.460,-0.200
'17:12.850',-0.470,-0.185
'17:12.853',-0.470,-0.155
'17:12.856',-0.470,-0.125
'17:12.858',-0.470,-0.070
'17:12.861',-0.480,0.000
'17:12.864',-0.490,0.040
'17:12.867',-0.505,0.040
'17:12.869',-0.540,-0.020
'17:12.872',-0.560,-0.175
'17:12.875',-0.525,-0.405
'17:12.878',-0.445,-0.725
'17:12.881',-0.265,-1.090
'17:12.883',-0.010,-1.440
'17:12.886',0.325,-1.740
'17:12.889',0.730,-1.940
'17:12.892',1.165,-2.065
'17:12.894',1.585,-2.090
'17:12.897',1.925,-2.090
'17:12.900',2.080,-2.055
'17:12.903',2.070,-2.010
'17:12.906',1.885,-1.950
'17:12.908',1.555,-1.900
'17:12.911',1.135,-1.815
'17:12.914',0.655,-1.645
'17:12.917',0.190,-1.360
'17:12.919',-0.245,-1.025
'17:12.922',-0.615,-0.715
'17:12.925',-0.900,-0.485
'17:12.928',-1.070,-0.340
'17:12.931',-1.110,-0.300
'17:12.933',-1.065,-0.290
'17:12.936',-0.945,-0.320
'17:12.939',-0.825,-0.335
'17:12.942',-0.715,-0.335
'17:12.944',-0.660,-0.330
'17:12.947',-0.645,-0.315
'17:12.950',-0.660,-0.285
'17:12.953',-0.690,-0.265
'17:12.956',-0.710,-0.235
'17:12.958',-0.725,-0.230
'17:12.961',-0.730,-0.225
'17:12.964',-0.745,-0.220
'17:12.967',-0.765,-0.240
'17:12.969',-0.765,-0.220
'17:12.972',-0.765,-0.225
'17:12.975',-0.775,-0.215
'17:12.978',-0.790,-0.200
'17:12.981',-0.790,-0.185
'17:12.983',-0.810,-0.175
'17:12.986',-0.805,-0.175
'17:12.989',-0.825,-0.150
'17:12.992',-0.830,-0.145
'17:12.994',-0.815,-0.130
'17:12.997',-0.815,-0.110
'17:13.000',-0.800,-0.105
'17:13.003',-0.800,-0.085
'17:13.006',-0.800,-0.085
'17:13.008',-0.820,-0.090
'17:13.011',-0.835,-0.095
'17:13.014',-0.845,-0.100
'17:13.017',-0.865,-0.075
'17:13.019',-0.855,-0.050
'17:13.022',-0.840,-0.025
'17:13.025',-0.825,0.000
'17:13.028',-0.805,0.015
'17:13.031',-0.800,0.025
'17:13.033',-0.795,0.025
'17:13.036',-0.800,0.035
'17:13.039',-0.800,0.050
'17:13.042',-0.790,0.060
'17:13.044',-0.775,0.070
'17:13.047',-0.750,0.100
'17:13.050',-0.735,0.110
'17:13.053',-0.715,0.130
'17:13.056',-0.705,0.140
'17:13.058',-0.670,0.155
'17:13.061',-0.655,0.175
'17:13.064',-0.630,0.195
'17:13.067',-0.595,0.210
'17:13.069',-0.555,0.210
'17:13.072',-0.520,0.205
'17:13.075',-0.485,0.190
'17:13.078',-0.465,0.205
'17:13.081',-0.425,0.210
'17:13.083',-0.400,0.220
'17:13.086',-0.355,0.230
'17:13.089',-0.300,0.235
'17:13.092',-0.230,0.245
'17:13.094',-0.160,0.240
'17:13.097',-0.120,0.265
'17:13.100',-0.080,0.255
'17:13.103',-0.045,0.250
'17:13.106',-0.010,0.230
'17:13.108',0.010,0.210
'17:13.111',0.065,0.180
'17:13.114',0.110,0.180
'17:13.117',0.155,0.195
'17:13.119',0.195,0.205
'17:13.122',0.230,0.230
'17:13.125',0.255,0.220
'17:13.128',0.285,0.215
'17:13.131',0.310,0.185
'17:13.133',0.345,0.150
'17:13.136',0.370,0.140
'17:13.139',0.405,0.115
'17:13.142',0.435,0.100
'17:13.144',0.455,0.085
'17:13.147',0.460,0.065
'17:13.150',0.460,0.065
'17:13.153',0.465,0.040
'17:13.156',0.470,0.025
'17:13.158',0.485,0.010
'17:13.161',0.505,0.005
'17:13.164',0.515,0.000
'17:13.167',0.515,-0.025
'17:13.169',0.505,-0.020
'17:13.172',0.475,-0.020
'17:13.175',0.450,-0.045
'17:13.178',0.425,-0.075
'17:13.181',0.405,-0.080
'17:13.183',0.385,-0.075
'17:13.186',0.390,-0.080
'17:13.189',0.395,-0.090
'17:13.192',0.390,-0.095
'17:13.194',0.380,-0.100
'17:13.197',0.360,-0.115
'17:13.200',0.340,-0.120
'17:13.203',0.310,-0.120
'17:13.206',0.285,-0.130
'17:13.208',0.260,-0.120
'17:13.211',0.225,-0.120
'17:13.214',0.200,-0.115
'17:13.217',0.175,-0.095
